time [s] Activity [arb units]
0.0000 0.0000
0.0167 0.0300
0.0333 0.0450
0.0500 0.0600
0.0667 0.0750
0.0833 0.0900
0.1000 0.1050
0.1167 0.1200
0.1333 0.1350
0.1500 0.1350
0.1667 0.1337
0.1833 0.1290
0.2000 0.1212
0.2167 0.1109
0.2333 0.0982
0.2500 0.0836
0.2667 0.0672
0.2833 0.0494
0.3000 0.0303
0.3167 0.0453
0.3333 0.0603
0.3500 0.0753
0.3667 0.0903
0.3833 0.1053
0.4000 0.1203
0.4167 0.1353
0.4333 0.1503
0.4500 0.1653
0.4667 0.1803
0.4833 0.1803
0.5000 0.1790
0.5167 0.1743
0.5333 0.1665
0.5500 0.1562
0.5667 0.1435
0.5833 0.1289
0.6000 0.1125
0.6167 0.0947
0.6333 0.0756
0.6500 0.0906
0.6667 0.1056
0.6833 0.1206
0.7000 0.1356
0.7167 0.1506
0.7333 0.1656
0.7500 0.1806
0.7667 0.1956
0.7833 0.2106
0.8000 0.2256
0.8167 0.2256
0.8333 0.2243
0.8500 0.2195
0.8667 0.2118
0.8833 0.2015
0.9000 0.1888
0.9167 0.1742
0.9333 0.1578
0.9500 0.1400
0.9667 0.1209
0.9833 0.1359
1.0000 0.1509
1.0167 0.1659
1.0333 0.1809
1.0500 0.1959
1.0667 0.2109
1.0833 0.2259
1.1000 0.2409
1.1167 0.2559
1.1333 0.2709
1.1500 0.2709
1.1667 0.2696
1.1833 0.2648
1.2000 0.2571
1.2167 0.2468
1.2333 0.2341
1.2500 0.2195
1.2667 0.2031
1.2833 0.1853
1.3000 0.1662
1.3167 0.1812
1.3333 0.1962
1.3500 0.2112
1.3667 0.2262
1.3833 0.2412
1.4000 0.2562
1.4167 0.2712
1.4333 0.2862
1.4500 0.3012
1.4667 0.3162
1.4833 0.3162
1.5000 0.3149
1.5167 0.3101
1.5333 0.3024
1.5500 0.2921
1.5667 0.2794
1.5833 0.2648
1.6000 0.2484
1.6167 0.2306
1.6333 0.2115
1.6500 0.2265
1.6667 0.2415
1.6833 0.2565
1.7000 0.2715
1.7167 0.2865
1.7333 0.3015
1.7500 0.3165
1.7667 0.3315
1.7833 0.3465
1.8000 0.3615
1.8167 0.3615
1.8333 0.3602
1.8500 0.3554
1.8667 0.3477
1.8833 0.3374
1.9000 0.3247
1.9167 0.3101
1.9333 0.2937
1.9500 0.2759
1.9667 0.2568
1.9833 0.2718
2.0000 0.2868
2.0167 0.3018
2.0333 0.3168
2.0500 0.3318
2.0667 0.3468
2.0833 0.3618
2.1000 0.3768
2.1167 0.3918
2.1333 0.4068
2.1500 0.4068
2.1667 0.4054
2.1833 0.4007
2.2000 0.3930
2.2167 0.3827
2.2333 0.3700
2.2500 0.3554
2.2667 0.3390
2.2833 0.3212
2.3000 0.3021
2.3167 0.3171
2.3333 0.3321
2.3500 0.3471
2.3667 0.3621
2.3833 0.3771
2.4000 0.3921
2.4167 0.4071
2.4333 0.4221
2.4500 0.4371
2.4667 0.4521
2.4833 0.4521
2.5000 0.4507
2.5167 0.4460
2.5333 0.4383
2.5500 0.4280
2.5667 0.4153
2.5833 0.4007
2.6000 0.3843
2.6167 0.3665
2.6333 0.3474
2.6500 0.3624
2.6667 0.3774
2.6833 0.3924
2.7000 0.4074
2.7167 0.4224
2.7333 0.4374
2.7500 0.4524
2.7667 0.4674
2.7833 0.4824
2.8000 0.4974
2.8167 0.4974
2.8333 0.4960
2.8500 0.4913
2.8667 0.4836
2.8833 0.4732
2.9000 0.4606
2.9167 0.4460
2.9333 0.4296
2.9500 0.4118
2.9667 0.3927
2.9833 0.4077
3.0000 0.4227
3.0167 0.4377
3.0333 0.4527
3.0500 0.4677
3.0667 0.4827
3.0833 0.4977
3.1000 0.5127
3.1167 0.5277
3.1333 0.5427
3.1500 0.5427
3.1667 0.5413
3.1833 0.5366
3.2000 0.5289
3.2167 0.5185
3.2333 0.5059
3.2500 0.4913
3.2667 0.4749
3.2833 0.4570
3.3000 0.4379
3.3167 0.4529
3.3333 0.4679
3.3500 0.4829
3.3667 0.4979
3.3833 0.5129
3.4000 0.5279
3.4167 0.5429
3.4333 0.5579
3.4500 0.5729
3.4667 0.5879
3.4833 0.5879
3.5000 0.5866
3.5167 0.5819
3.5333 0.5742
3.5500 0.5638
3.5667 0.5512
3.5833 0.5366
3.6000 0.5202
3.6167 0.5023
3.6333 0.4832
3.6500 0.4982
3.6667 0.5132
3.6833 0.5282
3.7000 0.5432
3.7167 0.5582
3.7333 0.5732
3.7500 0.5882
3.7667 0.6032
3.7833 0.6182
3.8000 0.6332
3.8167 0.6332
3.8333 0.6319
3.8500 0.6272
3.8667 0.6195
3.8833 0.6091
3.9000 0.5965
3.9167 0.5818
3.9333 0.5655
3.9500 0.5476
3.9667 0.5285
3.9833 0.5435
4.0000 0.5585
4.0167 0.5735
4.0333 0.5885
4.0500 0.6035
4.0667 0.6185
4.0833 0.6335
4.1000 0.6485
4.1167 0.6635
4.1333 0.6785
4.1500 0.6785
4.1667 0.6772
4.1833 0.6725
4.2000 0.6648
4.2167 0.6544
4.2333 0.6418
4.2500 0.6271
4.2667 0.6108
4.2833 0.5929
4.3000 0.5738
4.3167 0.5888
4.3333 0.6038
4.3500 0.6188
4.3667 0.6338
4.3833 0.6488
4.4000 0.6638
4.4167 0.6788
4.4333 0.6938
4.4500 0.7088
4.4667 0.7238
4.4833 0.7238
4.5000 0.7225
4.5167 0.7178
4.5333 0.7101
4.5500 0.6997
4.5667 0.6871
4.5833 0.6724
4.6000 0.6561
4.6167 0.6382
4.6333 0.6191
4.6500 0.6341
4.6667 0.6491
4.6833 0.6641
4.7000 0.6791
4.7167 0.6941
4.7333 0.7091
4.7500 0.7241
4.7667 0.7391
4.7833 0.7541
4.8000 0.7691
4.8167 0.7691
4.8333 0.7678
4.8500 0.7631
4.8667 0.7554
4.8833 0.7450
4.9000 0.7324
4.9167 0.7177
4.9333 0.7014
4.9500 0.6835
4.9667 0.6644
4.9833 0.9166
5.0000 0.9171
5.0167 0.9176
5.0333 0.9180
5.0500 0.9185
5.0667 0.9190
5.0833 0.9195
5.1000 0.9200
5.1167 0.9204
5.1333 0.9209
5.1500 0.9214
5.1667 0.9219
5.1833 0.9223
5.2000 0.9228
5.2167 0.9233
5.2333 0.9238
5.2500 0.9243
5.2667 0.9247
5.2833 0.9252
5.3000 0.9257
5.3167 0.9262
5.3333 0.9266
5.3500 0.9271
5.3667 0.9276
5.3833 0.9281
5.4000 0.9285
5.4167 0.9290
5.4333 0.9295
5.4500 0.9299
5.4667 0.9304
5.4833 0.9309
5.5000 0.9314
5.5167 0.9318
5.5333 0.9323
5.5500 0.9328
5.5667 0.9332
5.5833 0.9337
5.6000 0.9342
5.6167 0.9347
5.6333 0.9351
5.6500 0.9356
5.6667 0.9361
5.6833 0.9365
5.7000 0.9370
5.7167 0.9375
5.7333 0.9379
5.7500 0.9384
5.7667 0.9389
5.7833 0.9393
5.8000 0.9398
5.8167 0.9403
5.8333 0.9407
5.8500 0.9412
5.8667 0.9417
5.8833 0.9421
5.9000 0.9426
5.9167 0.9431
5.9333 0.9435
5.9500 0.9440
5.9667 0.9444
5.9833 0.9449
6.0000 0.9454
6.0167 0.9458
6.0333 0.9463
6.0500 0.9468
6.0667 0.9472
6.0833 0.9477
6.1000 0.9481
6.1167 0.9486
6.1333 0.9491
6.1500 0.9495
6.1667 0.9500
6.1833 0.9504
6.2000 0.9509
6.2167 0.9514
6.2333 0.9518
6.2500 0.9523
6.2667 0.9527
6.2833 0.9532
6.3000 0.9536
6.3167 0.9541
6.3333 0.9546
6.3500 0.9550
6.3667 0.9555
6.3833 0.9559
6.4000 0.9564
6.4167 0.9568
6.4333 0.9573
6.4500 0.9577
6.4667 0.9582
6.4833 0.9586
6.5000 0.9591
6.5167 0.9596
6.5333 0.9600
6.5500 0.9605
6.5667 0.9609
6.5833 0.9614
6.6000 0.9618
6.6167 0.9623
6.6333 0.9627
6.6500 0.9632
6.6667 0.9636
6.6833 0.9641
6.7000 0.9645
6.7167 0.9650
6.7333 0.9654
6.7500 0.9659
6.7667 0.9663
6.7833 0.9668
6.8000 0.9672
6.8167 0.9677
6.8333 0.9681
6.8500 0.9685
6.8667 0.9690
6.8833 0.9694
6.9000 0.9699
6.9167 0.9703
6.9333 0.9708
6.9500 0.9712
6.9667 0.9717
6.9833 0.9721
7.0000 0.9726
7.0167 0.9730
7.0333 0.9734
7.0500 0.9739
7.0667 0.9743
7.0833 0.9748
7.1000 0.9752
7.1167 0.9757
7.1333 0.9761
7.1500 0.9765
7.1667 0.9770
7.1833 0.9774
7.2000 0.9779
7.2167 0.9783
7.2333 0.9787
7.2500 0.9792
7.2667 0.9796
7.2833 0.9801
7.3000 0.9805
7.3167 0.9809
7.3333 0.9814
7.3500 0.9818
7.3667 0.9823
7.3833 0.9827
7.4000 0.9831
7.4167 0.9836
7.4333 0.9840
7.4500 0.9844
7.4667 0.9849
7.4833 0.9853
7.5000 0.9858
7.5167 0.9862
7.5333 0.9866
7.5500 0.9871
7.5667 0.9875
7.5833 0.9879
7.6000 0.9884
7.6167 0.9888
7.6333 0.9892
7.6500 0.9897
7.6667 0.9901
7.6833 0.9905
7.7000 0.9910
7.7167 0.9914
7.7333 0.9918
7.7500 0.9923
7.7667 0.9927
7.7833 0.9931
7.8000 0.9935
7.8167 0.9940
7.8333 0.9944
7.8500 0.9948
7.8667 0.9953
7.8833 0.9957
7.9000 0.9961
7.9167 0.9966
7.9333 0.9970
7.9500 0.9974
7.9667 0.9978
7.9833 0.9983
8.0000 0.9987
8.0167 0.9991
8.0333 0.9995
8.0500 1.0000
8.0667 1.0004
8.0833 1.0008
8.1000 1.0013
8.1167 1.0017
8.1333 1.0021
8.1500 1.0025
8.1667 1.0029
8.1833 1.0034
8.2000 1.0038
8.2167 1.0042
8.2333 1.0046
8.2500 1.0051
8.2667 1.0055
8.2833 1.0059
8.3000 1.0063
8.3167 1.0068
8.3333 1.0072
8.3500 1.0076
8.3667 1.0080
8.3833 1.0084
8.4000 1.0089
8.4167 1.0093
8.4333 1.0097
8.4500 1.0101
8.4667 1.0105
8.4833 1.0110
8.5000 1.0114
8.5167 1.0118
8.5333 1.0122
8.5500 1.0126
8.5667 1.0130
8.5833 1.0135
8.6000 1.0139
8.6167 1.0143
8.6333 1.0147
8.6500 1.0151
8.6667 1.0155
8.6833 1.0160
8.7000 1.0164
8.7167 1.0168
8.7333 1.0172
8.7500 1.0176
8.7667 1.0180
8.7833 1.0185
8.8000 1.0189
8.8167 1.0193
8.8333 1.0197
8.8500 1.0201
8.8667 1.0205
8.8833 1.0209
8.9000 1.0213
8.9167 1.0218
8.9333 1.0222
8.9500 1.0226
8.9667 1.0230
8.9833 1.0234
9.0000 1.0238
9.0167 1.0242
9.0333 1.0246
9.0500 1.0250
9.0667 1.0255
9.0833 1.0259
9.1000 1.0263
9.1167 1.0267
9.1333 1.0271
9.1500 1.0275
9.1667 1.0279
9.1833 1.0283
9.2000 1.0287
9.2167 1.0291
9.2333 1.0295
9.2500 1.0299
9.2667 1.0303
9.2833 1.0307
9.3000 1.0312
9.3167 1.0316
9.3333 1.0320
9.3500 1.0324
9.3667 1.0328
9.3833 1.0332
9.4000 1.0336
9.4167 1.0340
9.4333 1.0344
9.4500 1.0348
9.4667 1.0352
9.4833 1.0356
9.5000 1.0360
9.5167 1.0364
9.5333 1.0368
9.5500 1.0372
9.5667 1.0376
9.5833 1.0380
9.6000 1.0384
9.6167 1.0388
9.6333 1.0392
9.6500 1.0396
9.6667 1.0400
9.6833 1.0404
9.7000 1.0408
9.7167 1.0412
9.7333 1.0416
9.7500 1.0420
9.7667 1.0424
9.7833 1.0428
9.8000 1.0432
9.8167 1.0436
9.8333 1.0440
9.8500 1.0444
9.8667 1.0448
9.8833 1.0452
9.9000 1.0456
9.9167 1.0460
9.9333 1.0464
9.9500 1.0468
9.9667 1.0472
9.9833 1.0476
10.0000 1.0479
10.0167 1.0483
10.0333 1.0487
10.0500 1.0491
10.0667 1.0495
10.0833 1.0499
10.1000 1.0503
10.1167 1.0507
10.1333 1.0511
10.1500 1.0515
10.1667 1.0519
10.1833 1.0523
10.2000 1.0527
10.2167 1.0531
10.2333 1.0534
10.2500 1.0538
10.2667 1.0542
10.2833 1.0546
10.3000 1.0550
10.3167 1.0554
10.3333 1.0558
10.3500 1.0562
10.3667 1.0566
10.3833 1.0570
10.4000 1.0573
10.4167 1.0577
10.4333 1.0581
10.4500 1.0585
10.4667 1.0589
10.4833 1.0593
10.5000 1.0597
10.5167 1.0600
10.5333 1.0604
10.5500 1.0608
10.5667 1.0612
10.5833 1.0616
10.6000 1.0620
10.6167 1.0624
10.6333 1.0627
10.6500 1.0631
10.6667 1.0635
10.6833 1.0639
10.7000 1.0643
10.7167 1.0647
10.7333 1.0651
10.7500 1.0654
10.7667 1.0658
10.7833 1.0662
10.8000 1.0666
10.8167 1.0670
10.8333 1.0673
10.8500 1.0677
10.8667 1.0681
10.8833 1.0685
10.9000 1.0689
10.9167 1.0692
10.9333 1.0696
10.9500 1.0700
10.9667 1.0704
10.9833 1.0708
11.0000 1.0711
11.0167 1.0715
11.0333 1.0719
11.0500 1.0723
11.0667 1.0727
11.0833 1.0730
11.1000 1.0734
11.1167 1.0738
11.1333 1.0742
11.1500 1.0745
11.1667 1.0749
11.1833 1.0753
11.2000 1.0757
11.2167 1.0761
11.2333 1.0764
11.2500 1.0768
11.2667 1.0772
11.2833 1.0776
11.3000 1.0779
11.3167 1.0783
11.3333 1.0787
11.3500 1.0790
11.3667 1.0794
11.3833 1.0798
11.4000 1.0802
11.4167 1.0805
11.4333 1.0809
11.4500 1.0813
11.4667 1.0817
11.4833 1.0820
11.5000 1.0824
11.5167 1.0828
11.5333 1.0831
11.5500 1.0835
11.5667 1.0839
11.5833 1.0843
11.6000 1.0846
11.6167 1.0850
11.6333 1.0854
11.6500 1.0857
11.6667 1.0861
11.6833 1.0865
11.7000 1.0868
11.7167 1.0872
11.7333 1.0876
11.7500 1.0879
11.7667 1.0883
11.7833 1.0887
11.8000 1.0890
11.8167 1.0894
11.8333 1.0898
11.8500 1.0901
11.8667 1.0905
11.8833 1.0909
11.9000 1.0912
11.9167 1.0916
11.9333 1.0920
11.9500 1.0923
11.9667 1.0927
11.9833 1.0931
12.0000 1.0934
12.0167 1.0938
12.0333 1.0942
12.0500 1.0945
12.0667 1.0949
12.0833 1.0953
12.1000 1.0956
12.1167 1.0960
12.1333 1.0963
12.1500 1.0967
12.1667 1.0971
12.1833 1.0974
12.2000 1.0978
12.2167 1.0981
12.2333 1.0985
12.2500 1.0989
12.2667 1.0992
12.2833 1.0996
12.3000 1.1000
12.3167 1.1003
12.3333 1.1007
12.3500 1.1010
12.3667 1.1014
12.3833 1.1017
12.4000 1.1021
12.4167 1.1025
12.4333 1.1028
12.4500 1.1032
12.4667 1.1035
12.4833 1.1039
12.5000 1.1043
12.5167 1.1046
12.5333 1.1050
12.5500 1.1053
12.5667 1.1057
12.5833 1.1060
12.6000 1.1064
12.6167 1.1067
12.6333 1.1071
12.6500 1.1075
12.6667 1.1078
12.6833 1.1082
12.7000 1.1085
12.7167 1.1089
12.7333 1.1092
12.7500 1.1096
12.7667 1.1099
12.7833 1.1103
12.8000 1.1106
12.8167 1.1110
12.8333 1.1113
12.8500 1.1117
12.8667 1.1120
12.8833 1.1124
12.9000 1.1127
12.9167 1.1131
12.9333 1.1135
12.9500 1.1138
12.9667 1.1142
12.9833 1.1145
13.0000 1.1149
13.0167 1.1152
13.0333 1.1156
13.0500 1.1159
13.0667 1.1162
13.0833 1.1166
13.1000 1.1169
13.1167 1.1173
13.1333 1.1176
13.1500 1.1180
13.1667 1.1183
13.1833 1.1187
13.2000 1.1190
13.2167 1.1194
13.2333 1.1197
13.2500 1.1201
13.2667 1.1204
13.2833 1.1208
13.3000 1.1211
13.3167 1.1215
13.3333 1.1218
13.3500 1.1221
13.3667 1.1225
13.3833 1.1228
13.4000 1.1232
13.4167 1.1235
13.4333 1.1239
13.4500 1.1242
13.4667 1.1246
13.4833 1.1249
13.5000 1.1252
13.5167 1.1256
13.5333 1.1259
13.5500 1.1263
13.5667 1.1266
13.5833 1.1270
13.6000 1.1273
13.6167 1.1276
13.6333 1.1280
13.6500 1.1283
13.6667 1.1287
13.6833 1.1290
13.7000 1.1293
13.7167 1.1297
13.7333 1.1300
13.7500 1.1304
13.7667 1.1307
13.7833 1.1310
13.8000 1.1314
13.8167 1.1317
13.8333 1.1321
13.8500 1.1324
13.8667 1.1327
13.8833 1.1331
13.9000 1.1334
13.9167 1.1337
13.9333 1.1341
13.9500 1.1344
13.9667 1.1348
13.9833 1.1351
14.0000 1.1354
14.0167 1.1358
14.0333 1.1361
14.0500 1.1364
14.0667 1.1368
14.0833 1.1371
14.1000 1.1374
14.1167 1.1378
14.1333 1.1381
14.1500 1.1384
14.1667 1.1388
14.1833 1.1391
14.2000 1.1394
14.2167 1.1398
14.2333 1.1401
14.2500 1.1404
14.2667 1.1408
14.2833 1.1411
14.3000 1.1414
14.3167 1.1418
14.3333 1.1421
14.3500 1.1424
14.3667 1.1428
14.3833 1.1431
14.4000 1.1434
14.4167 1.1438
14.4333 1.1441
14.4500 1.1444
14.4667 1.1448
14.4833 1.1451
14.5000 1.1454
14.5167 1.1457
14.5333 1.1461
14.5500 1.1464
14.5667 1.1467
14.5833 1.1471
14.6000 1.1474
14.6167 1.1477
14.6333 1.1480
14.6500 1.1484
14.6667 1.1487
14.6833 1.1490
14.7000 1.1493
14.7167 1.1497
14.7333 1.1500
14.7500 1.1503
14.7667 1.1507
14.7833 1.1510
14.8000 1.1513
14.8167 1.1516
14.8333 1.1520
14.8500 1.1523
14.8667 1.1526
14.8833 1.1529
14.9000 1.1533
14.9167 1.1536
14.9333 1.1539
14.9500 1.1542
14.9667 1.1545
14.9833 1.1549
15.0000 1.1552
15.0167 1.1555
15.0333 1.1558
15.0500 1.1562
15.0667 1.1565
15.0833 1.1568
15.1000 1.1571
15.1167 1.1574
15.1333 1.1578
15.1500 1.1581
15.1667 1.1584
15.1833 1.1587
15.2000 1.1591
15.2167 1.1594
15.2333 1.1597
15.2500 1.1600
15.2667 1.1603
15.2833 1.1607
15.3000 1.1610
15.3167 1.1613
15.3333 1.1616
15.3500 1.1619
15.3667 1.1622
15.3833 1.1626
15.4000 1.1629
15.4167 1.1632
15.4333 1.1635
15.4500 1.1638
15.4667 1.1642
15.4833 1.1645
15.5000 1.1648
15.5167 1.1651
15.5333 1.1654
15.5500 1.1657
15.5667 1.1660
15.5833 1.1664
15.6000 1.1667
15.6167 1.1670
15.6333 1.1673
15.6500 1.1676
15.6667 1.1679
15.6833 1.1683
15.7000 1.1686
15.7167 1.1689
15.7333 1.1692
15.7500 1.1695
15.7667 1.1698
15.7833 1.1701
15.8000 1.1704
15.8167 1.1708
15.8333 1.1711
15.8500 1.1714
15.8667 1.1717
15.8833 1.1720
15.9000 1.1723
15.9167 1.1726
15.9333 1.1729
15.9500 1.1733
15.9667 1.1736
15.9833 1.1739
16.0000 1.1742
16.0167 1.1745
16.0333 1.1748
16.0500 1.1751
16.0667 1.1754
16.0833 1.1757
16.1000 1.1760
16.1167 1.1763
16.1333 1.1767
16.1500 1.1770
16.1667 1.1773
16.1833 1.1776
16.2000 1.1779
16.2167 1.1782
16.2333 1.1785
16.2500 1.1788
16.2667 1.1791
16.2833 1.1794
16.3000 1.1797
16.3167 1.1800
16.3333 1.1803
16.3500 1.1807
16.3667 1.1810
16.3833 1.1813
16.4000 1.1816
16.4167 1.1819
16.4333 1.1822
16.4500 1.1825
16.4667 1.1828
16.4833 1.1831
16.5000 1.1834
16.5167 1.1837
16.5333 1.1840
16.5500 1.1843
16.5667 1.1846
16.5833 1.1849
16.6000 1.1852
16.6167 1.1855
16.6333 1.1858
16.6500 1.1861
16.6667 1.1864
16.6833 1.1867
16.7000 1.1870
16.7167 1.1873
16.7333 1.1876
16.7500 1.1879
16.7667 1.1882
16.7833 1.1885
16.8000 1.1888
16.8167 1.1891
16.8333 1.1894
16.8500 1.1897
16.8667 1.1900
16.8833 1.1903
16.9000 1.1906
16.9167 1.1909
16.9333 1.1912
16.9500 1.1915
16.9667 1.1918
16.9833 1.1921
17.0000 1.1924
17.0167 1.1927
17.0333 1.1930
17.0500 1.1933
17.0667 1.1936
17.0833 1.1939
17.1000 1.1942
17.1167 1.1945
17.1333 1.1948
17.1500 1.1951
17.1667 1.1954
17.1833 1.1957
17.2000 1.1960
17.2167 1.1963
17.2333 1.1966
17.2500 1.1969
17.2667 1.1972
17.2833 1.1975
17.3000 1.1978
17.3167 1.1980
17.3333 1.1983
17.3500 1.1986
17.3667 1.1989
17.3833 1.1992
17.4000 1.1995
17.4167 1.1998
17.4333 1.2001
17.4500 1.2004
17.4667 1.2007
17.4833 1.2010
17.5000 1.2013
17.5167 1.2016
17.5333 1.2019
17.5500 1.2021
17.5667 1.2024
17.5833 1.2027
17.6000 1.2030
17.6167 1.2033
17.6333 1.2036
17.6500 1.2039
17.6667 1.2042
17.6833 1.2045
17.7000 1.2048
17.7167 1.2050
17.7333 1.2053
17.7500 1.2056
17.7667 1.2059
17.7833 1.2062
17.8000 1.2065
17.8167 1.2068
17.8333 1.2071
17.8500 1.2074
17.8667 1.2076
17.8833 1.2079
17.9000 1.2082
17.9167 1.2085
17.9333 1.2088
17.9500 1.2091
17.9667 1.2094
17.9833 1.2097
18.0000 1.2099
18.0167 1.2102
18.0333 1.2105
18.0500 1.2108
18.0667 1.2111
18.0833 1.2114
18.1000 1.2117
18.1167 1.2119
18.1333 1.2122
18.1500 1.2125
18.1667 1.2128
18.1833 1.2131
18.2000 1.2134
18.2167 1.2136
18.2333 1.2139
18.2500 1.2142
18.2667 1.2145
18.2833 1.2148
18.3000 1.2151
18.3167 1.2153
18.3333 1.2156
18.3500 1.2159
18.3667 1.2162
18.3833 1.2165
18.4000 1.2168
18.4167 1.2170
18.4333 1.2173
18.4500 1.2176
18.4667 1.2179
18.4833 1.2182
18.5000 1.2184
18.5167 1.2187
18.5333 1.2190
18.5500 1.2193
18.5667 1.2196
18.5833 1.2198
18.6000 1.2201
18.6167 1.2204
18.6333 1.2207
18.6500 1.2210
18.6667 1.2212
18.6833 1.2215
18.7000 1.2218
18.7167 1.2221
18.7333 1.2223
18.7500 1.2226
18.7667 1.2229
18.7833 1.2232
18.8000 1.2235
18.8167 1.2237
18.8333 1.2240
18.8500 1.2243
18.8667 1.2246
18.8833 1.2248
18.9000 1.2251
18.9167 1.2254
18.9333 1.2257
18.9500 1.2259
18.9667 1.2262
18.9833 1.2265
19.0000 1.2268
19.0167 1.2270
19.0333 1.2273
19.0500 1.2276
19.0667 1.2279
19.0833 1.2281
19.1000 1.2284
19.1167 1.2287
19.1333 1.2290
19.1500 1.2292
19.1667 1.2295
19.1833 1.2298
19.2000 1.2300
19.2167 1.2303
19.2333 1.2306
19.2500 1.2309
19.2667 1.2311
19.2833 1.2314
19.3000 1.2317
19.3167 1.2320
19.3333 1.2322
19.3500 1.2325
19.3667 1.2328
19.3833 1.2330
19.4000 1.2333
19.4167 1.2336
19.4333 1.2338
19.4500 1.2341
19.4667 1.2344
19.4833 1.2347
19.5000 1.2349
19.5167 1.2352
19.5333 1.2355
19.5500 1.2357
19.5667 1.2360
19.5833 1.2363
19.6000 1.2365
19.6167 1.2368
19.6333 1.2371
19.6500 1.2373
19.6667 1.2376
19.6833 1.2379
19.7000 1.2381
19.7167 1.2384
19.7333 1.2387
19.7500 1.2389
19.7667 1.2392
19.7833 1.2395
19.8000 1.2397
19.8167 1.2400
19.8333 1.2403
19.8500 1.2405
19.8667 1.2408
19.8833 1.2411
19.9000 1.2413
19.9167 1.2416
19.9333 1.2419
19.9500 1.2421
19.9667 1.2424
19.9833 1.2427
20.0000 1.2429
20.0167 1.2432
20.0333 1.2434
20.0500 1.2437
20.0667 1.2440
20.0833 1.2442
20.1000 1.2445
20.1167 1.2448
20.1333 1.2450
20.1500 1.2453
20.1667 1.2455
20.1833 1.2458
20.2000 1.2461
20.2167 1.2463
20.2333 1.2466
20.2500 1.2469
20.2667 1.2471
20.2833 1.2474
20.3000 1.2476
20.3167 1.2479
20.3333 1.2482
20.3500 1.2484
20.3667 1.2487
20.3833 1.2489
20.4000 1.2492
20.4167 1.2495
20.4333 1.2497
20.4500 1.2500
20.4667 1.2502
20.4833 1.2505
20.5000 1.2508
20.5167 1.2510
20.5333 1.2513
20.5500 1.2515
20.5667 1.2518
20.5833 1.2520
20.6000 1.2523
20.6167 1.2526
20.6333 1.2528
20.6500 1.2531
20.6667 1.2533
20.6833 1.2536
20.7000 1.2538
20.7167 1.2541
20.7333 1.2544
20.7500 1.2546
20.7667 1.2549
20.7833 1.2551
20.8000 1.2554
20.8167 1.2556
20.8333 1.2559
20.8500 1.2561
20.8667 1.2564
20.8833 1.2567
20.9000 1.2569
20.9167 1.2572
20.9333 1.2574
20.9500 1.2577
20.9667 1.2579
20.9833 1.2582
21.0000 1.2584
21.0167 1.2587
21.0333 1.2589
21.0500 1.2592
21.0667 1.2594
21.0833 1.2597
21.1000 1.2599
21.1167 1.2602
21.1333 1.2605
21.1500 1.2607
21.1667 1.2610
21.1833 1.2612
21.2000 1.2615
21.2167 1.2617
21.2333 1.2620
21.2500 1.2622
21.2667 1.2625
21.2833 1.2627
21.3000 1.2630
21.3167 1.2632
21.3333 1.2635
21.3500 1.2637
21.3667 1.2640
21.3833 1.2642
21.4000 1.2645
21.4167 1.2647
21.4333 1.2650
21.4500 1.2652
21.4667 1.2655
21.4833 1.2657
21.5000 1.2660
21.5167 1.2662
21.5333 1.2664
21.5500 1.2667
21.5667 1.2669
21.5833 1.2672
21.6000 1.2674
21.6167 1.2677
21.6333 1.2679
21.6500 1.2682
21.6667 1.2684
21.6833 1.2687
21.7000 1.2689
21.7167 1.2692
21.7333 1.2694
21.7500 1.2697
21.7667 1.2699
21.7833 1.2701
21.8000 1.2704
21.8167 1.2706
21.8333 1.2709
21.8500 1.2711
21.8667 1.2714
21.8833 1.2716
21.9000 1.2719
21.9167 1.2721
21.9333 1.2723
21.9500 1.2726
21.9667 1.2728
21.9833 1.2731
22.0000 1.2733
22.0167 1.2736
22.0333 1.2738
22.0500 1.2741
22.0667 1.2743
22.0833 1.2745
22.1000 1.2748
22.1167 1.2750
22.1333 1.2753
22.1500 1.2755
22.1667 1.2757
22.1833 1.2760
22.2000 1.2762
22.2167 1.2765
22.2333 1.2767
22.2500 1.2770
22.2667 1.2772
22.2833 1.2774
22.3000 1.2777
22.3167 1.2779
22.3333 1.2782
22.3500 1.2784
22.3667 1.2786
22.3833 1.2789
22.4000 1.2791
22.4167 1.2794
22.4333 1.2796
22.4500 1.2798
22.4667 1.2801
22.4833 1.2803
22.5000 1.2805
22.5167 1.2808
22.5333 1.2810
22.5500 1.2813
22.5667 1.2815
22.5833 1.2817
22.6000 1.2820
22.6167 1.2822
22.6333 1.2824
22.6500 1.2827
22.6667 1.2829
22.6833 1.2832
22.7000 1.2834
22.7167 1.2836
22.7333 1.2839
22.7500 1.2841
22.7667 1.2843
22.7833 1.2846
22.8000 1.2848
22.8167 1.2850
22.8333 1.2853
22.8500 1.2855
22.8667 1.2857
22.8833 1.2860
22.9000 1.2862
22.9167 1.2864
22.9333 1.2867
22.9500 1.2869
22.9667 1.2872
22.9833 1.2874
23.0000 1.2876
23.0167 1.2879
23.0333 1.2881
23.0500 1.2883
23.0667 1.2886
23.0833 1.2888
23.1000 1.2890
23.1167 1.2892
23.1333 1.2895
23.1500 1.2897
23.1667 1.2899
23.1833 1.2902
23.2000 1.2904
23.2167 1.2906
23.2333 1.2909
23.2500 1.2911
23.2667 1.2913
23.2833 1.2916
23.3000 1.2918
23.3167 1.2920
23.3333 1.2923
23.3500 1.2925
23.3667 1.2927
23.3833 1.2929
23.4000 1.2932
23.4167 1.2934
23.4333 1.2936
23.4500 1.2939
23.4667 1.2941
23.4833 1.2943
23.5000 1.2946
23.5167 1.2948
23.5333 1.2950
23.5500 1.2952
23.5667 1.2955
23.5833 1.2957
23.6000 1.2959
23.6167 1.2961
23.6333 1.2964
23.6500 1.2966
23.6667 1.2968
23.6833 1.2971
23.7000 1.2973
23.7167 1.2975
23.7333 1.2977
23.7500 1.2980
23.7667 1.2982
23.7833 1.2984
23.8000 1.2986
23.8167 1.2989
23.8333 1.2991
23.8500 1.2993
23.8667 1.2995
23.8833 1.2998
23.9000 1.3000
23.9167 1.3002
23.9333 1.3004
23.9500 1.3007
23.9667 1.3009
23.9833 1.3011
24.0000 1.3013
24.0167 1.3016
24.0333 1.3018
24.0500 1.3020
24.0667 1.3022
24.0833 1.3025
24.1000 1.3027
24.1167 1.3029
24.1333 1.3031
24.1500 1.3034
24.1667 1.3036
24.1833 1.3038
24.2000 1.3040
24.2167 1.3042
24.2333 1.3045
24.2500 1.3047
24.2667 1.3049
24.2833 1.3051
24.3000 1.3053
24.3167 1.3056
24.3333 1.3058
24.3500 1.3060
24.3667 1.3062
24.3833 1.3065
24.4000 1.3067
24.4167 1.3069
24.4333 1.3071
24.4500 1.3073
24.4667 1.3076
24.4833 1.3078
24.5000 1.3080
24.5167 1.3082
24.5333 1.3084
24.5500 1.3087
24.5667 1.3089
24.5833 1.3091
24.6000 1.3093
24.6167 1.3095
24.6333 1.3097
24.6500 1.3100
24.6667 1.3102
24.6833 1.3104
24.7000 1.3106
24.7167 1.3108
24.7333 1.3111
24.7500 1.3113
24.7667 1.3115
24.7833 1.3117
24.8000 1.3119
24.8167 1.3121
24.8333 1.3124
24.8500 1.3126
24.8667 1.3128
24.8833 1.3130
24.9000 1.3132
24.9167 1.3134
24.9333 1.3137
24.9500 1.3139
24.9667 1.3141
24.9833 1.3143
25.0000 1.3145
25.0167 1.3147
25.0333 1.3149
25.0500 1.3152
25.0667 1.3154
25.0833 1.3156
25.1000 1.3158
25.1167 1.3160
25.1333 1.3162
25.1500 1.3164
25.1667 1.3167
25.1833 1.3169
25.2000 1.3171
25.2167 1.3173
25.2333 1.3175
25.2500 1.3177
25.2667 1.3179
25.2833 1.3181
25.3000 1.3184
25.3167 1.3186
25.3333 1.3188
25.3500 1.3190
25.3667 1.3192
25.3833 1.3194
25.4000 1.3196
25.4167 1.3198
25.4333 1.3201
25.4500 1.3203
25.4667 1.3205
25.4833 1.3207
25.5000 1.3209
25.5167 1.3211
25.5333 1.3213
25.5500 1.3215
25.5667 1.3217
25.5833 1.3219
25.6000 1.3222
25.6167 1.3224
25.6333 1.3226
25.6500 1.3228
25.6667 1.3230
25.6833 1.3232
25.7000 1.3234
25.7167 1.3236
25.7333 1.3238
25.7500 1.3240
25.7667 1.3242
25.7833 1.3245
25.8000 1.3247
25.8167 1.3249
25.8333 1.3251
25.8500 1.3253
25.8667 1.3255
25.8833 1.3257
25.9000 1.3259
25.9167 1.3261
25.9333 1.3263
25.9500 1.3265
25.9667 1.3267
25.9833 1.3269
26.0000 1.3272
26.0167 1.3274
26.0333 1.3276
26.0500 1.3278
26.0667 1.3280
26.0833 1.3282
26.1000 1.3284
26.1167 1.3286
26.1333 1.3288
26.1500 1.3290
26.1667 1.3292
26.1833 1.3294
26.2000 1.3296
26.2167 1.3298
26.2333 1.3300
26.2500 1.3302
26.2667 1.3304
26.2833 1.3306
26.3000 1.3308
26.3167 1.3310
26.3333 1.3312
26.3500 1.3315
26.3667 1.3317
26.3833 1.3319
26.4000 1.3321
26.4167 1.3323
26.4333 1.3325
26.4500 1.3327
26.4667 1.3329
26.4833 1.3331
26.5000 1.3333
26.5167 1.3335
26.5333 1.3337
26.5500 1.3339
26.5667 1.3341
26.5833 1.3343
26.6000 1.3345
26.6167 1.3347
26.6333 1.3349
26.6500 1.3351
26.6667 1.3353
26.6833 1.3355
26.7000 1.3357
26.7167 1.3359
26.7333 1.3361
26.7500 1.3363
26.7667 1.3365
26.7833 1.3367
26.8000 1.3369
26.8167 1.3371
26.8333 1.3373
26.8500 1.3375
26.8667 1.3377
26.8833 1.3379
26.9000 1.3381
26.9167 1.3383
26.9333 1.3385
26.9500 1.3387
26.9667 1.3389
26.9833 1.3391
27.0000 1.3393
27.0167 1.3395
27.0333 1.3397
27.0500 1.3399
27.0667 1.3401
27.0833 1.3403
27.1000 1.3405
27.1167 1.3407
27.1333 1.3409
27.1500 1.3411
27.1667 1.3413
27.1833 1.3414
27.2000 1.3416
27.2167 1.3418
27.2333 1.3420
27.2500 1.3422
27.2667 1.3424
27.2833 1.3426
27.3000 1.3428
27.3167 1.3430
27.3333 1.3432
27.3500 1.3434
27.3667 1.3436
27.3833 1.3438
27.4000 1.3440
27.4167 1.3442
27.4333 1.3444
27.4500 1.3446
27.4667 1.3448
27.4833 1.3450
27.5000 1.3452
27.5167 1.3454
27.5333 1.3455
27.5500 1.3457
27.5667 1.3459
27.5833 1.3461
27.6000 1.3463
27.6167 1.3465
27.6333 1.3467
27.6500 1.3469
27.6667 1.3471
27.6833 1.3473
27.7000 1.3475
27.7167 1.3477
27.7333 1.3479
27.7500 1.3480
27.7667 1.3482
27.7833 1.3484
27.8000 1.3486
27.8167 1.3488
27.8333 1.3490
27.8500 1.3492
27.8667 1.3494
27.8833 1.3496
27.9000 1.3498
27.9167 1.3500
27.9333 1.3502
27.9500 1.3503
27.9667 1.3505
27.9833 1.3507
28.0000 1.3509
28.0167 1.3511
28.0333 1.3513
28.0500 1.3515
28.0667 1.3517
28.0833 1.3519
28.1000 1.3521
28.1167 1.3522
28.1333 1.3524
28.1500 1.3526
28.1667 1.3528
28.1833 1.3530
28.2000 1.3532
28.2167 1.3534
28.2333 1.3536
28.2500 1.3537
28.2667 1.3539
28.2833 1.3541
28.3000 1.3543
28.3167 1.3545
28.3333 1.3547
28.3500 1.3549
28.3667 1.3551
28.3833 1.3552
28.4000 1.3554
28.4167 1.3556
28.4333 1.3558
28.4500 1.3560
28.4667 1.3562
28.4833 1.3564
28.5000 1.3566
28.5167 1.3567
28.5333 1.3569
28.5500 1.3571
28.5667 1.3573
28.5833 1.3575
28.6000 1.3577
28.6167 1.3579
28.6333 1.3580
28.6500 1.3582
28.6667 1.3584
28.6833 1.3586
28.7000 1.3588
28.7167 1.3590
28.7333 1.3591
28.7500 1.3593
28.7667 1.3595
28.7833 1.3597
28.8000 1.3599
28.8167 1.3601
28.8333 1.3602
28.8500 1.3604
28.8667 1.3606
28.8833 1.3608
28.9000 1.3610
28.9167 1.3612
28.9333 1.3613
28.9500 1.3615
28.9667 1.3617
28.9833 1.3619
29.0000 1.3621
29.0167 1.3623
29.0333 1.3624
29.0500 1.3626
29.0667 1.3628
29.0833 1.3630
29.1000 1.3632
29.1167 1.3633
29.1333 1.3635
29.1500 1.3637
29.1667 1.3639
29.1833 1.3641
29.2000 1.3643
29.2167 1.3644
29.2333 1.3646
29.2500 1.3648
29.2667 1.3650
29.2833 1.3652
29.3000 1.3653
29.3167 1.3655
29.3333 1.3657
29.3500 1.3659
29.3667 1.3661
29.3833 1.3662
29.4000 1.3664
29.4167 1.3666
29.4333 1.3668
29.4500 1.3669
29.4667 1.3671
29.4833 1.3673
29.5000 1.3675
29.5167 1.3677
29.5333 1.3678
29.5500 1.3680
29.5667 1.3682
29.5833 1.3684
29.6000 1.3686
29.6167 1.3687
29.6333 1.3689
29.6500 1.3691
29.6667 1.3693
29.6833 1.3694
29.7000 1.3696
29.7167 1.3698
29.7333 1.3700
29.7500 1.3701
29.7667 1.3703
29.7833 1.3705
29.8000 1.3707
29.8167 1.3709
29.8333 1.3710
29.8500 1.3712
29.8667 1.3714
29.8833 1.3716
29.9000 1.3717
29.9167 1.3719
29.9333 1.3721
29.9500 1.3723
29.9667 1.3724
29.9833 1.3726
30.0000 1.3728
30.0167 1.3730
30.0333 1.3731
30.0500 1.3733
30.0667 1.3735
30.0833 1.3737
30.1000 1.3738
30.1167 1.3740
30.1333 1.3742
30.1500 1.3743
30.1667 1.3745
30.1833 1.3747
30.2000 1.3749
30.2167 1.3750
30.2333 1.3752
30.2500 1.3754
30.2667 1.3756
30.2833 1.3757
30.3000 1.3759
30.3167 1.3761
30.3333 1.3762
30.3500 1.3764
30.3667 1.3766
30.3833 1.3768
30.4000 1.3769
30.4167 1.3771
30.4333 1.3773
30.4500 1.3775
30.4667 1.3776
30.4833 1.3778
30.5000 1.3780
30.5167 1.3781
30.5333 1.3783
30.5500 1.3785
30.5667 1.3786
30.5833 1.3788
30.6000 1.3790
30.6167 1.3792
30.6333 1.3793
30.6500 1.3795
30.6667 1.3797
30.6833 1.3798
30.7000 1.3800
30.7167 1.3802
30.7333 1.3803
30.7500 1.3805
30.7667 1.3807
30.7833 1.3809
30.8000 1.3810
30.8167 1.3812
30.8333 1.3814
30.8500 1.3815
30.8667 1.3817
30.8833 1.3819
30.9000 1.3820
30.9167 1.3822
30.9333 1.3824
30.9500 1.3825
30.9667 1.3827
30.9833 1.3829
31.0000 1.3830
31.0167 1.3832
31.0333 1.3834
31.0500 1.3835
31.0667 1.3837
31.0833 1.3839
31.1000 1.3840
31.1167 1.3842
31.1333 1.3844
31.1500 1.3845
31.1667 1.3847
31.1833 1.3849
31.2000 1.3850
31.2167 1.3852
31.2333 1.3854
31.2500 1.3855
31.2667 1.3857
31.2833 1.3859
31.3000 1.3860
31.3167 1.3862
31.3333 1.3864
31.3500 1.3865
31.3667 1.3867
31.3833 1.3869
31.4000 1.3870
31.4167 1.3872
31.4333 1.3874
31.4500 1.3875
31.4667 1.3877
31.4833 1.3879
31.5000 1.3880
31.5167 1.3882
31.5333 1.3883
31.5500 1.3885
31.5667 1.3887
31.5833 1.3888
31.6000 1.3890
31.6167 1.3892
31.6333 1.3893
31.6500 1.3895
31.6667 1.3897
31.6833 1.3898
31.7000 1.3900
31.7167 1.3901
31.7333 1.3903
31.7500 1.3905
31.7667 1.3906
31.7833 1.3908
31.8000 1.3910
31.8167 1.3911
31.8333 1.3913
31.8500 1.3914
31.8667 1.3916
31.8833 1.3918
31.9000 1.3919
31.9167 1.3921
31.9333 1.3922
31.9500 1.3924
31.9667 1.3926
31.9833 1.3927
32.0000 1.3929
32.0167 1.3930
32.0333 1.3932
32.0500 1.3934
32.0667 1.3935
32.0833 1.3937
32.1000 1.3938
32.1167 1.3940
32.1333 1.3942
32.1500 1.3943
32.1667 1.3945
32.1833 1.3946
32.2000 1.3948
32.2167 1.3950
32.2333 1.3951
32.2500 1.3953
32.2667 1.3954
32.2833 1.3956
32.3000 1.3958
32.3167 1.3959
32.3333 1.3961
32.3500 1.3962
32.3667 1.3964
32.3833 1.3966
32.4000 1.3967
32.4167 1.3969
32.4333 1.3970
32.4500 1.3972
32.4667 1.3973
32.4833 1.3975
32.5000 1.3977
32.5167 1.3978
32.5333 1.3980
32.5500 1.3981
32.5667 1.3983
32.5833 1.3984
32.6000 1.3986
32.6167 1.3988
32.6333 1.3989
32.6500 1.3991
32.6667 1.3992
32.6833 1.3994
32.7000 1.3995
32.7167 1.3997
32.7333 1.3998
32.7500 1.4000
32.7667 1.4002
32.7833 1.4003
32.8000 1.4005
32.8167 1.4006
32.8333 1.4008
32.8500 1.4009
32.8667 1.4011
32.8833 1.4012
32.9000 1.4014
32.9167 1.4016
32.9333 1.4017
32.9500 1.4019
32.9667 1.4020
32.9833 1.4022
33.0000 1.4023
33.0167 1.4025
33.0333 1.4026
33.0500 1.4028
33.0667 1.4029
33.0833 1.4031
33.1000 1.4032
33.1167 1.4034
33.1333 1.4036
33.1500 1.4037
33.1667 1.4039
33.1833 1.4040
33.2000 1.4042
33.2167 1.4043
33.2333 1.4045
33.2500 1.4046
33.2667 1.4048
33.2833 1.4049
33.3000 1.4051
33.3167 1.4052
33.3333 1.4054
33.3500 1.4055
33.3667 1.4057
33.3833 1.4058
33.4000 1.4060
33.4167 1.4061
33.4333 1.4063
33.4500 1.4064
33.4667 1.4066
33.4833 1.4067
33.5000 1.4069
33.5167 1.4070
33.5333 1.4072
33.5500 1.4073
33.5667 1.4075
33.5833 1.4076
33.6000 1.4078
33.6167 1.4079
33.6333 1.4081
33.6500 1.4082
33.6667 1.4084
33.6833 1.4085
33.7000 1.4087
33.7167 1.4088
33.7333 1.4090
33.7500 1.4091
33.7667 1.4093
33.7833 1.4094
33.8000 1.4096
33.8167 1.4097
33.8333 1.4099
33.8500 1.4100
33.8667 1.4102
33.8833 1.4103
33.9000 1.4105
33.9167 1.4106
33.9333 1.4108
33.9500 1.4109
33.9667 1.4111
33.9833 1.4112
34.0000 1.4114
34.0167 1.4115
34.0333 1.4117
34.0500 1.4118
34.0667 1.4120
34.0833 1.4121
34.1000 1.4123
34.1167 1.4124
34.1333 1.4125
34.1500 1.4127
34.1667 1.4128
34.1833 1.4130
34.2000 1.4131
34.2167 1.4133
34.2333 1.4134
34.2500 1.4136
34.2667 1.4137
34.2833 1.4139
34.3000 1.4140
34.3167 1.4142
34.3333 1.4143
34.3500 1.4144
34.3667 1.4146
34.3833 1.4147
34.4000 1.4149
34.4167 1.4150
34.4333 1.4152
34.4500 1.4153
34.4667 1.4155
34.4833 1.4156
34.5000 1.4157
34.5167 1.4159
34.5333 1.4160
34.5500 1.4162
34.5667 1.4163
34.5833 1.4165
34.6000 1.4166
34.6167 1.4168
34.6333 1.4169
34.6500 1.4170
34.6667 1.4172
34.6833 1.4173
34.7000 1.4175
34.7167 1.4176
34.7333 1.4178
34.7500 1.4179
34.7667 1.4180
34.7833 1.4182
34.8000 1.4183
34.8167 1.4185
34.8333 1.4186
34.8500 1.4188
34.8667 1.4189
34.8833 1.4190
34.9000 1.4192
34.9167 1.4193
34.9333 1.4195
34.9500 1.4196
34.9667 1.4198
34.9833 1.4199
35.0000 1.4200
35.0167 1.4202
35.0333 1.4203
35.0500 1.4205
35.0667 1.4206
35.0833 1.4207
35.1000 1.4209
35.1167 1.4210
35.1333 1.4212
35.1500 1.4213
35.1667 1.4214
35.1833 1.4216
35.2000 1.4217
35.2167 1.4219
35.2333 1.4220
35.2500 1.4221
35.2667 1.4223
35.2833 1.4224
35.3000 1.4226
35.3167 1.4227
35.3333 1.4228
35.3500 1.4230
35.3667 1.4231
35.3833 1.4233
35.4000 1.4234
35.4167 1.4235
35.4333 1.4237
35.4500 1.4238
35.4667 1.4240
35.4833 1.4241
35.5000 1.4242
35.5167 1.4244
35.5333 1.4245
35.5500 1.4246
35.5667 1.4248
35.5833 1.4249
35.6000 1.4251
35.6167 1.4252
35.6333 1.4253
35.6500 1.4255
35.6667 1.4256
35.6833 1.4257
35.7000 1.4259
35.7167 1.4260
35.7333 1.4262
35.7500 1.4263
35.7667 1.4264
35.7833 1.4266
35.8000 1.4267
35.8167 1.4268
35.8333 1.4270
35.8500 1.4271
35.8667 1.4273
35.8833 1.4274
35.9000 1.4275
35.9167 1.4277
35.9333 1.4278
35.9500 1.4279
35.9667 1.4281
35.9833 1.4282
36.0000 1.4283
36.0167 1.4285
36.0333 1.4286
36.0500 1.4287
36.0667 1.4289
36.0833 1.4290
36.1000 1.4292
36.1167 1.4293
36.1333 1.4294
36.1500 1.4296
36.1667 1.4297
36.1833 1.4298
36.2000 1.4300
36.2167 1.4301
36.2333 1.4302
36.2500 1.4304
36.2667 1.4305
36.2833 1.4306
36.3000 1.4308
36.3167 1.4309
36.3333 1.4310
36.3500 1.4312
36.3667 1.4313
36.3833 1.4314
36.4000 1.4316
36.4167 1.4317
36.4333 1.4318
36.4500 1.4320
36.4667 1.4321
36.4833 1.4322
36.5000 1.4324
36.5167 1.4325
36.5333 1.4326
36.5500 1.4328
36.5667 1.4329
36.5833 1.4330
36.6000 1.4332
36.6167 1.4333
36.6333 1.4334
36.6500 1.4336
36.6667 1.4337
36.6833 1.4338
36.7000 1.4339
36.7167 1.4341
36.7333 1.4342
36.7500 1.4343
36.7667 1.4345
36.7833 1.4346
36.8000 1.4347
36.8167 1.4349
36.8333 1.4350
36.8500 1.4351
36.8667 1.4353
36.8833 1.4354
36.9000 1.4355
36.9167 1.4356
36.9333 1.4358
36.9500 1.4359
36.9667 1.4360
36.9833 1.4362
37.0000 1.4363
37.0167 1.4364
37.0333 1.4366
37.0500 1.4367
37.0667 1.4368
37.0833 1.4369
37.1000 1.4371
37.1167 1.4372
37.1333 1.4373
37.1500 1.4375
37.1667 1.4376
37.1833 1.4377
37.2000 1.4378
37.2167 1.4380
37.2333 1.4381
37.2500 1.4382
37.2667 1.4384
37.2833 1.4385
37.3000 1.4386
37.3167 1.4387
37.3333 1.4389
37.3500 1.4390
37.3667 1.4391
37.3833 1.4393
37.4000 1.4394
37.4167 1.4395
37.4333 1.4396
37.4500 1.4398
37.4667 1.4399
37.4833 1.4400
37.5000 1.4401
37.5167 1.4403
37.5333 1.4404
37.5500 1.4405
37.5667 1.4407
37.5833 1.4408
37.6000 1.4409
37.6167 1.4410
37.6333 1.4412
37.6500 1.4413
37.6667 1.4414
37.6833 1.4415
37.7000 1.4417
37.7167 1.4418
37.7333 1.4419
37.7500 1.4420
37.7667 1.4422
37.7833 1.4423
37.8000 1.4424
37.8167 1.4425
37.8333 1.4427
37.8500 1.4428
37.8667 1.4429
37.8833 1.4430
37.9000 1.4432
37.9167 1.4433
37.9333 1.4434
37.9500 1.4435
37.9667 1.4437
37.9833 1.4438
38.0000 1.4439
38.0167 1.4440
38.0333 1.4442
38.0500 1.4443
38.0667 1.4444
38.0833 1.4445
38.1000 1.4447
38.1167 1.4448
38.1333 1.4449
38.1500 1.4450
38.1667 1.4452
38.1833 1.4453
38.2000 1.4454
38.2167 1.4455
38.2333 1.4456
38.2500 1.4458
38.2667 1.4459
38.2833 1.4460
38.3000 1.4461
38.3167 1.4463
38.3333 1.4464
38.3500 1.4465
38.3667 1.4466
38.3833 1.4468
38.4000 1.4469
38.4167 1.4470
38.4333 1.4471
38.4500 1.4472
38.4667 1.4474
38.4833 1.4475
38.5000 1.4476
38.5167 1.4477
38.5333 1.4478
38.5500 1.4480
38.5667 1.4481
38.5833 1.4482
38.6000 1.4483
38.6167 1.4485
38.6333 1.4486
38.6500 1.4487
38.6667 1.4488
38.6833 1.4489
38.7000 1.4491
38.7167 1.4492
38.7333 1.4493
38.7500 1.4494
38.7667 1.4495
38.7833 1.4497
38.8000 1.4498
38.8167 1.4499
38.8333 1.4500
38.8500 1.4501
38.8667 1.4503
38.8833 1.4504
38.9000 1.4505
38.9167 1.4506
38.9333 1.4507
38.9500 1.4509
38.9667 1.4510
38.9833 1.4511
39.0000 1.4512
39.0167 1.4513
39.0333 1.4515
39.0500 1.4516
39.0667 1.4517
39.0833 1.4518
39.1000 1.4519
39.1167 1.4520
39.1333 1.4522
39.1500 1.4523
39.1667 1.4524
39.1833 1.4525
39.2000 1.4526
39.2167 1.4528
39.2333 1.4529
39.2500 1.4530
39.2667 1.4531
39.2833 1.4532
39.3000 1.4533
39.3167 1.4535
39.3333 1.4536
39.3500 1.4537
39.3667 1.4538
39.3833 1.4539
39.4000 1.4540
39.4167 1.4542
39.4333 1.4543
39.4500 1.4544
39.4667 1.4545
39.4833 1.4546
39.5000 1.4547
39.5167 1.4549
39.5333 1.4550
39.5500 1.4551
39.5667 1.4552
39.5833 1.4553
39.6000 1.4554
39.6167 1.4556
39.6333 1.4557
39.6500 1.4558
39.6667 1.4559
39.6833 1.4560
39.7000 1.4561
39.7167 1.4563
39.7333 1.4564
39.7500 1.4565
39.7667 1.4566
39.7833 1.4567
39.8000 1.4568
39.8167 1.4569
39.8333 1.4571
39.8500 1.4572
39.8667 1.4573
39.8833 1.4574
39.9000 1.4575
39.9167 1.4576
39.9333 1.4577
39.9500 1.4579
39.9667 1.4580
39.9833 1.4581
40.0000 1.4582
40.0167 1.4583
40.0333 1.4584
40.0500 1.4585
40.0667 1.4587
40.0833 1.4588
40.1000 1.4589
40.1167 1.4590
40.1333 1.4591
40.1500 1.4592
40.1667 1.4593
40.1833 1.4594
40.2000 1.4596
40.2167 1.4597
40.2333 1.4598
40.2500 1.4599
40.2667 1.4600
40.2833 1.4601
40.3000 1.4602
40.3167 1.4603
40.3333 1.4605
40.3500 1.4606
40.3667 1.4607
40.3833 1.4608
40.4000 1.4609
40.4167 1.4610
40.4333 1.4611
40.4500 1.4612
40.4667 1.4614
40.4833 1.4615
40.5000 1.4616
40.5167 1.4617
40.5333 1.4618
40.5500 1.4619
40.5667 1.4620
40.5833 1.4621
40.6000 1.4622
40.6167 1.4624
40.6333 1.4625
40.6500 1.4626
40.6667 1.4627
40.6833 1.4628
40.7000 1.4629
40.7167 1.4630
40.7333 1.4631
40.7500 1.4632
40.7667 1.4634
40.7833 1.4635
40.8000 1.4636
40.8167 1.4637
40.8333 1.4638
40.8500 1.4639
40.8667 1.4640
40.8833 1.4641
40.9000 1.4642
40.9167 1.4643
40.9333 1.4644
40.9500 1.4646
40.9667 1.4647
40.9833 1.4648
41.0000 1.4649
41.0167 1.4650
41.0333 1.4651
41.0500 1.4652
41.0667 1.4653
41.0833 1.4654
41.1000 1.4655
41.1167 1.4656
41.1333 1.4658
41.1500 1.4659
41.1667 1.4660
41.1833 1.4661
41.2000 1.4662
41.2167 1.4663
41.2333 1.4664
41.2500 1.4665
41.2667 1.4666
41.2833 1.4667
41.3000 1.4668
41.3167 1.4669
41.3333 1.4670
41.3500 1.4672
41.3667 1.4673
41.3833 1.4674
41.4000 1.4675
41.4167 1.4676
41.4333 1.4677
41.4500 1.4678
41.4667 1.4679
41.4833 1.4680
41.5000 1.4681
41.5167 1.4682
41.5333 1.4683
41.5500 1.4684
41.5667 1.4685
41.5833 1.4686
41.6000 1.4688
41.6167 1.4689
41.6333 1.4690
41.6500 1.4691
41.6667 1.4692
41.6833 1.4693
41.7000 1.4694
41.7167 1.4695
41.7333 1.4696
41.7500 1.4697
41.7667 1.4698
41.7833 1.4699
41.8000 1.4700
41.8167 1.4701
41.8333 1.4702
41.8500 1.4703
41.8667 1.4704
41.8833 1.4705
41.9000 1.4707
41.9167 1.4708
41.9333 1.4709
41.9500 1.4710
41.9667 1.4711
41.9833 1.4712
42.0000 1.4713
42.0167 1.4714
42.0333 1.4715
42.0500 1.4716
42.0667 1.4717
42.0833 1.4718
42.1000 1.4719
42.1167 1.4720
42.1333 1.4721
42.1500 1.4722
42.1667 1.4723
42.1833 1.4724
42.2000 1.4725
42.2167 1.4726
42.2333 1.4727
42.2500 1.4728
42.2667 1.4729
42.2833 1.4730
42.3000 1.4731
42.3167 1.4732
42.3333 1.4734
42.3500 1.4735
42.3667 1.4736
42.3833 1.4737
42.4000 1.4738
42.4167 1.4739
42.4333 1.4740
42.4500 1.4741
42.4667 1.4742
42.4833 1.4743
42.5000 1.4744
42.5167 1.4745
42.5333 1.4746
42.5500 1.4747
42.5667 1.4748
42.5833 1.4749
42.6000 1.4750
42.6167 1.4751
42.6333 1.4752
42.6500 1.4753
42.6667 1.4754
42.6833 1.4755
42.7000 1.4756
42.7167 1.4757
42.7333 1.4758
42.7500 1.4759
42.7667 1.4760
42.7833 1.4761
42.8000 1.4762
42.8167 1.4763
42.8333 1.4764
42.8500 1.4765
42.8667 1.4766
42.8833 1.4767
42.9000 1.4768
42.9167 1.4769
42.9333 1.4770
42.9500 1.4771
42.9667 1.4772
42.9833 1.4773
43.0000 1.4774
43.0167 1.4775
43.0333 1.4776
43.0500 1.4777
43.0667 1.4778
43.0833 1.4779
43.1000 1.4780
43.1167 1.4781
43.1333 1.4782
43.1500 1.4783
43.1667 1.4784
43.1833 1.4785
43.2000 1.4786
43.2167 1.4787
43.2333 1.4788
43.2500 1.4789
43.2667 1.4790
43.2833 1.4791
43.3000 1.4792
43.3167 1.4793
43.3333 1.4794
43.3500 1.4795
43.3667 1.4796
43.3833 1.4797
43.4000 1.4798
43.4167 1.4799
43.4333 1.4800
43.4500 1.4801
43.4667 1.4802
43.4833 1.4803
43.5000 1.4804
43.5167 1.4805
43.5333 1.4806
43.5500 1.4807
43.5667 1.4807
43.5833 1.4808
43.6000 1.4809
43.6167 1.4810
43.6333 1.4811
43.6500 1.4812
43.6667 1.4813
43.6833 1.4814
43.7000 1.4815
43.7167 1.4816
43.7333 1.4817
43.7500 1.4818
43.7667 1.4819
43.7833 1.4820
43.8000 1.4821
43.8167 1.4822
43.8333 1.4823
43.8500 1.4824
43.8667 1.4825
43.8833 1.4826
43.9000 1.4827
43.9167 1.4828
43.9333 1.4829
43.9500 1.4830
43.9667 1.4831
43.9833 1.4832
44.0000 1.4833
44.0167 1.4833
44.0333 1.4834
44.0500 1.4835
44.0667 1.4836
44.0833 1.4837
44.1000 1.4838
44.1167 1.4839
44.1333 1.4840
44.1500 1.4841
44.1667 1.4842
44.1833 1.4843
44.2000 1.4844
44.2167 1.4845
44.2333 1.4846
44.2500 1.4847
44.2667 1.4848
44.2833 1.4849
44.3000 1.4850
44.3167 1.4851
44.3333 1.4851
44.3500 1.4852
44.3667 1.4853
44.3833 1.4854
44.4000 1.4855
44.4167 1.4856
44.4333 1.4857
44.4500 1.4858
44.4667 1.4859
44.4833 1.4860
44.5000 1.4861
44.5167 1.4862
44.5333 1.4863
44.5500 1.4864
44.5667 1.4865
44.5833 1.4865
44.6000 1.4866
44.6167 1.4867
44.6333 1.4868
44.6500 1.4869
44.6667 1.4870
44.6833 1.4871
44.7000 1.4872
44.7167 1.4873
44.7333 1.4874
44.7500 1.4875
44.7667 1.4876
44.7833 1.4877
44.8000 1.4877
44.8167 1.4878
44.8333 1.4879
44.8500 1.4880
44.8667 1.4881
44.8833 1.4882
44.9000 1.4883
44.9167 1.4884
44.9333 1.4885
44.9500 1.4886
44.9667 1.4887
44.9833 1.4888
45.0000 1.4888
45.0167 1.4889
45.0333 1.4890
45.0500 1.4891
45.0667 1.4892
45.0833 1.4893
45.1000 1.4894
45.1167 1.4895
45.1333 1.4896
45.1500 1.4897
45.1667 1.4898
45.1833 1.4898
45.2000 1.4899
45.2167 1.4900
45.2333 1.4901
45.2500 1.4902
45.2667 1.4903
45.2833 1.4904
45.3000 1.4905
45.3167 1.4906
45.3333 1.4907
45.3500 1.4907
45.3667 1.4908
45.3833 1.4909
45.4000 1.4910
45.4167 1.4911
45.4333 1.4912
45.4500 1.4913
45.4667 1.4914
45.4833 1.4915
45.5000 1.4916
45.5167 1.4916
45.5333 1.4917
45.5500 1.4918
45.5667 1.4919
45.5833 1.4920
45.6000 1.4921
45.6167 1.4922
45.6333 1.4923
45.6500 1.4924
45.6667 1.4924
45.6833 1.4925
45.7000 1.4926
45.7167 1.4927
45.7333 1.4928
45.7500 1.4929
45.7667 1.4930
45.7833 1.4931
45.8000 1.4931
45.8167 1.4932
45.8333 1.4933
45.8500 1.4934
45.8667 1.4935
45.8833 1.4936
45.9000 1.4937
45.9167 1.4938
45.9333 1.4938
45.9500 1.4939
45.9667 1.4940
45.9833 1.4941
46.0000 1.4942
46.0167 1.4943
46.0333 1.4944
46.0500 1.4945
46.0667 1.4945
46.0833 1.4946
46.1000 1.4947
46.1167 1.4948
46.1333 1.4949
46.1500 1.4950
46.1667 1.4951
46.1833 1.4952
46.2000 1.4952
46.2167 1.4953
46.2333 1.4954
46.2500 1.4955
46.2667 1.4956
46.2833 1.4957
46.3000 1.4958
46.3167 1.4958
46.3333 1.4959
46.3500 1.4960
46.3667 1.4961
46.3833 1.4962
46.4000 1.4963
46.4167 1.4964
46.4333 1.4964
46.4500 1.4965
46.4667 1.4966
46.4833 1.4967
46.5000 1.4968
46.5167 1.4969
46.5333 1.4970
46.5500 1.4970
46.5667 1.4971
46.5833 1.4972
46.6000 1.4973
46.6167 1.4974
46.6333 1.4975
46.6500 1.4975
46.6667 1.4976
46.6833 1.4977
46.7000 1.4978
46.7167 1.4979
46.7333 1.4980
46.7500 1.4981
46.7667 1.4981
46.7833 1.4982
46.8000 1.4983
46.8167 1.4984
46.8333 1.4985
46.8500 1.4986
46.8667 1.4986
46.8833 1.4987
46.9000 1.4988
46.9167 1.4989
46.9333 1.4990
46.9500 1.4991
46.9667 1.4991
46.9833 1.4992
47.0000 1.4993
47.0167 1.4994
47.0333 1.4995
47.0500 1.4996
47.0667 1.4996
47.0833 1.4997
47.1000 1.4998
47.1167 1.4999
47.1333 1.5000
47.1500 1.5001
47.1667 1.5001
47.1833 1.5002
47.2000 1.5003
47.2167 1.5004
47.2333 1.5005
47.2500 1.5005
47.2667 1.5006
47.2833 1.5007
47.3000 1.5008
47.3167 1.5009
47.3333 1.5010
47.3500 1.5010
47.3667 1.5011
47.3833 1.5012
47.4000 1.5013
47.4167 1.5014
47.4333 1.5014
47.4500 1.5015
47.4667 1.5016
47.4833 1.5017
47.5000 1.5018
47.5167 1.5019
47.5333 1.5019
47.5500 1.5020
47.5667 1.5021
47.5833 1.5022
47.6000 1.5023
47.6167 1.5023
47.6333 1.5024
47.6500 1.5025
47.6667 1.5026
47.6833 1.5027
47.7000 1.5027
47.7167 1.5028
47.7333 1.5029
47.7500 1.5030
47.7667 1.5031
47.7833 1.5031
47.8000 1.5032
47.8167 1.5033
47.8333 1.5034
47.8500 1.5035
47.8667 1.5035
47.8833 1.5036
47.9000 1.5037
47.9167 1.5038
47.9333 1.5039
47.9500 1.5039
47.9667 1.5040
47.9833 1.5041
48.0000 1.5042
48.0167 1.5043
48.0333 1.5043
48.0500 1.5044
48.0667 1.5045
48.0833 1.5046
48.1000 1.5047
48.1167 1.5047
48.1333 1.5048
48.1500 1.5049
48.1667 1.5050
48.1833 1.5051
48.2000 1.5051
48.2167 1.5052
48.2333 1.5053
48.2500 1.5054
48.2667 1.5055
48.2833 1.5055
48.3000 1.5056
48.3167 1.5057
48.3333 1.5058
48.3500 1.5058
48.3667 1.5059
48.3833 1.5060
48.4000 1.5061
48.4167 1.5062
48.4333 1.5062
48.4500 1.5063
48.4667 1.5064
48.4833 1.5065
48.5000 1.5065
48.5167 1.5066
48.5333 1.5067
48.5500 1.5068
48.5667 1.5069
48.5833 1.5069
48.6000 1.5070
48.6167 1.5071
48.6333 1.5072
48.6500 1.5072
48.6667 1.5073
48.6833 1.5074
48.7000 1.5075
48.7167 1.5075
48.7333 1.5076
48.7500 1.5077
48.7667 1.5078
48.7833 1.5079
48.8000 1.5079
48.8167 1.5080
48.8333 1.5081
48.8500 1.5082
48.8667 1.5082
48.8833 1.5083
48.9000 1.5084
48.9167 1.5085
48.9333 1.5085
48.9500 1.5086
48.9667 1.5087
48.9833 1.5088
49.0000 1.5088
49.0167 1.5089
49.0333 1.5090
49.0500 1.5091
49.0667 1.5091
49.0833 1.5092
49.1000 1.5093
49.1167 1.5094
49.1333 1.5095
49.1500 1.5095
49.1667 1.5096
49.1833 1.5097
49.2000 1.5098
49.2167 1.5098
49.2333 1.5099
49.2500 1.5100
49.2667 1.5101
49.2833 1.5101
49.3000 1.5102
49.3167 1.5103
49.3333 1.5104
49.3500 1.5104
49.3667 1.5105
49.3833 1.5106
49.4000 1.5107
49.4167 1.5107
49.4333 1.5108
49.4500 1.5109
49.4667 1.5109
49.4833 1.5110
49.5000 1.5111
49.5167 1.5112
49.5333 1.5112
49.5500 1.5113
49.5667 1.5114
49.5833 1.5115
49.6000 1.5115
49.6167 1.5116
49.6333 1.5117
49.6500 1.5118
49.6667 1.5118
49.6833 1.5119
49.7000 1.5120
49.7167 1.5121
49.7333 1.5121
49.7500 1.5122
49.7667 1.5123
49.7833 1.5123
49.8000 1.5124
49.8167 1.5125
49.8333 1.5126
49.8500 1.5126
49.8667 1.5127
49.8833 1.5128
49.9000 1.5129
49.9167 1.5129
49.9333 1.5130
49.9500 1.5131
49.9667 1.5131
49.9833 1.5132
50.0000 1.5133
50.0167 1.5134
50.0333 1.5134
50.0500 1.5135
50.0667 1.5136
50.0833 1.5137
50.1000 1.5137
50.1167 1.5138
50.1333 1.5139
50.1500 1.5139
50.1667 1.5140
50.1833 1.5141
50.2000 1.5142
50.2167 1.5142
50.2333 1.5143
50.2500 1.5144
50.2667 1.5144
50.2833 1.5145
50.3000 1.5146
50.3167 1.5147
50.3333 1.5147
50.3500 1.5148
50.3667 1.5149
50.3833 1.5149
50.4000 1.5150
50.4167 1.5151
50.4333 1.5152
50.4500 1.5152
50.4667 1.5153
50.4833 1.5154
50.5000 1.5154
50.5167 1.5155
50.5333 1.5156
50.5500 1.5157
50.5667 1.5157
50.5833 1.5158
50.6000 1.5159
50.6167 1.5159
50.6333 1.5160
50.6500 1.5161
50.6667 1.5161
50.6833 1.5162
50.7000 1.5163
50.7167 1.5164
50.7333 1.5164
50.7500 1.5165
50.7667 1.5166
50.7833 1.5166
50.8000 1.5167
50.8167 1.5168
50.8333 1.5168
50.8500 1.5169
50.8667 1.5170
50.8833 1.5171
50.9000 1.5171
50.9167 1.5172
50.9333 1.5173
50.9500 1.5173
50.9667 1.5174
50.9833 1.5175
51.0000 1.5175
51.0167 1.5176
51.0333 1.5177
51.0500 1.5177
51.0667 1.5178
51.0833 1.5179
51.1000 1.5180
51.1167 1.5180
51.1333 1.5181
51.1500 1.5182
51.1667 1.5182
51.1833 1.5183
51.2000 1.5184
51.2167 1.5184
51.2333 1.5185
51.2500 1.5186
51.2667 1.5186
51.2833 1.5187
51.3000 1.5188
51.3167 1.5188
51.3333 1.5189
51.3500 1.5190
51.3667 1.5190
51.3833 1.5191
51.4000 1.5192
51.4167 1.5192
51.4333 1.5193
51.4500 1.5194
51.4667 1.5194
51.4833 1.5195
51.5000 1.5196
51.5167 1.5197
51.5333 1.5197
51.5500 1.5198
51.5667 1.5199
51.5833 1.5199
51.6000 1.5200
51.6167 1.5201
51.6333 1.5201
51.6500 1.5202
51.6667 1.5203
51.6833 1.5203
51.7000 1.5204
51.7167 1.5205
51.7333 1.5205
51.7500 1.5206
51.7667 1.5207
51.7833 1.5207
51.8000 1.5208
51.8167 1.5209
51.8333 1.5209
51.8500 1.5210
51.8667 1.5211
51.8833 1.5211
51.9000 1.5212
51.9167 1.5213
51.9333 1.5213
51.9500 1.5214
51.9667 1.5215
51.9833 1.5215
52.0000 1.5216
52.0167 1.5216
52.0333 1.5217
52.0500 1.5218
52.0667 1.5218
52.0833 1.5219
52.1000 1.5220
52.1167 1.5220
52.1333 1.5221
52.1500 1.5222
52.1667 1.5222
52.1833 1.5223
52.2000 1.5224
52.2167 1.5224
52.2333 1.5225
52.2500 1.5226
52.2667 1.5226
52.2833 1.5227
52.3000 1.5228
52.3167 1.5228
52.3333 1.5229
52.3500 1.5230
52.3667 1.5230
52.3833 1.5231
52.4000 1.5231
52.4167 1.5232
52.4333 1.5233
52.4500 1.5233
52.4667 1.5234
52.4833 1.5235
52.5000 1.5235
52.5167 1.5236
52.5333 1.5237
52.5500 1.5237
52.5667 1.5238
52.5833 1.5239
52.6000 1.5239
52.6167 1.5240
52.6333 1.5240
52.6500 1.5241
52.6667 1.5242
52.6833 1.5242
52.7000 1.5243
52.7167 1.5244
52.7333 1.5244
52.7500 1.5245
52.7667 1.5246
52.7833 1.5246
52.8000 1.5247
52.8167 1.5247
52.8333 1.5248
52.8500 1.5249
52.8667 1.5249
52.8833 1.5250
52.9000 1.5251
52.9167 1.5251
52.9333 1.5252
52.9500 1.5253
52.9667 1.5253
52.9833 1.5254
53.0000 1.5254
53.0167 1.5255
53.0333 1.5256
53.0500 1.5256
53.0667 1.5257
53.0833 1.5258
53.1000 1.5258
53.1167 1.5259
53.1333 1.5259
53.1500 1.5260
53.1667 1.5261
53.1833 1.5261
53.2000 1.5262
53.2167 1.5263
53.2333 1.5263
53.2500 1.5264
53.2667 1.5264
53.2833 1.5265
53.3000 1.5266
53.3167 1.5266
53.3333 1.5267
53.3500 1.5267
53.3667 1.5268
53.3833 1.5269
53.4000 1.5269
53.4167 1.5270
53.4333 1.5271
53.4500 1.5271
53.4667 1.5272
53.4833 1.5272
53.5000 1.5273
53.5167 1.5274
53.5333 1.5274
53.5500 1.5275
53.5667 1.5275
53.5833 1.5276
53.6000 1.5277
53.6167 1.5277
53.6333 1.5278
53.6500 1.5279
53.6667 1.5279
53.6833 1.5280
53.7000 1.5280
53.7167 1.5281
53.7333 1.5282
53.7500 1.5282
53.7667 1.5283
53.7833 1.5283
53.8000 1.5284
53.8167 1.5285
53.8333 1.5285
53.8500 1.5286
53.8667 1.5286
53.8833 1.5287
53.9000 1.5288
53.9167 1.5288
53.9333 1.5289
53.9500 1.5289
53.9667 1.5290
53.9833 1.5291
54.0000 1.5291
54.0167 1.5292
54.0333 1.5292
54.0500 1.5293
54.0667 1.5294
54.0833 1.5294
54.1000 1.5295
54.1167 1.5295
54.1333 1.5296
54.1500 1.5297
54.1667 1.5297
54.1833 1.5298
54.2000 1.5298
54.2167 1.5299
54.2333 1.5299
54.2500 1.5300
54.2667 1.5301
54.2833 1.5301
54.3000 1.5302
54.3167 1.5302
54.3333 1.5303
54.3500 1.5304
54.3667 1.5304
54.3833 1.5305
54.4000 1.5305
54.4167 1.5306
54.4333 1.5307
54.4500 1.5307
54.4667 1.5308
54.4833 1.5308
54.5000 1.5309
54.5167 1.5309
54.5333 1.5310
54.5500 1.5311
54.5667 1.5311
54.5833 1.5312
54.6000 1.5312
54.6167 1.5313
54.6333 1.5314
54.6500 1.5314
54.6667 1.5315
54.6833 1.5315
54.7000 1.5316
54.7167 1.5316
54.7333 1.5317
54.7500 1.5318
54.7667 1.5318
54.7833 1.5319
54.8000 1.5319
54.8167 1.5320
54.8333 1.5320
54.8500 1.5321
54.8667 1.5322
54.8833 1.5322
54.9000 1.5323
54.9167 1.5323
54.9333 1.5324
54.9500 1.5324
54.9667 1.5325
54.9833 1.5326
55.0000 1.5326
55.0167 1.5327
55.0333 1.5327
55.0500 1.5328
55.0667 1.5328
55.0833 1.5329
55.1000 1.5330
55.1167 1.5330
55.1333 1.5331
55.1500 1.5331
55.1667 1.5332
55.1833 1.5332
55.2000 1.5333
55.2167 1.5334
55.2333 1.5334
55.2500 1.5335
55.2667 1.5335
55.2833 1.5336
55.3000 1.5336
55.3167 1.5337
55.3333 1.5337
55.3500 1.5338
55.3667 1.5339
55.3833 1.5339
55.4000 1.5340
55.4167 1.5340
55.4333 1.5341
55.4500 1.5341
55.4667 1.5342
55.4833 1.5342
55.5000 1.5343
55.5167 1.5344
55.5333 1.5344
55.5500 1.5345
55.5667 1.5345
55.5833 1.5346
55.6000 1.5346
55.6167 1.5347
55.6333 1.5347
55.6500 1.5348
55.6667 1.5349
55.6833 1.5349
55.7000 1.5350
55.7167 1.5350
55.7333 1.5351
55.7500 1.5351
55.7667 1.5352
55.7833 1.5352
55.8000 1.5353
55.8167 1.5353
55.8333 1.5354
55.8500 1.5355
55.8667 1.5355
55.8833 1.5356
55.9000 1.5356
55.9167 1.5357
55.9333 1.5357
55.9500 1.5358
55.9667 1.5358
55.9833 1.5359
56.0000 1.5359
56.0167 1.5360
56.0333 1.5361
56.0500 1.5361
56.0667 1.5362
56.0833 1.5362
56.1000 1.5363
56.1167 1.5363
56.1333 1.5364
56.1500 1.5364
56.1667 1.5365
56.1833 1.5365
56.2000 1.5366
56.2167 1.5366
56.2333 1.5367
56.2500 1.5368
56.2667 1.5368
56.2833 1.5369
56.3000 1.5369
56.3167 1.5370
56.3333 1.5370
56.3500 1.5371
56.3667 1.5371
56.3833 1.5372
56.4000 1.5372
56.4167 1.5373
56.4333 1.5373
56.4500 1.5374
56.4667 1.5374
56.4833 1.5375
56.5000 1.5376
56.5167 1.5376
56.5333 1.5377
56.5500 1.5377
56.5667 1.5378
56.5833 1.5378
56.6000 1.5379
56.6167 1.5379
56.6333 1.5380
56.6500 1.5380
56.6667 1.5381
56.6833 1.5381
56.7000 1.5382
56.7167 1.5382
56.7333 1.5383
56.7500 1.5383
56.7667 1.5384
56.7833 1.5384
56.8000 1.5385
56.8167 1.5385
56.8333 1.5386
56.8500 1.5387
56.8667 1.5387
56.8833 1.5388
56.9000 1.5388
56.9167 1.5389
56.9333 1.5389
56.9500 1.5390
56.9667 1.5390
56.9833 1.5391
57.0000 1.5391
57.0167 1.5392
57.0333 1.5392
57.0500 1.5393
57.0667 1.5393
57.0833 1.5394
57.1000 1.5394
57.1167 1.5395
57.1333 1.5395
57.1500 1.5396
57.1667 1.5396
57.1833 1.5397
57.2000 1.5397
57.2167 1.5398
57.2333 1.5398
57.2500 1.5399
57.2667 1.5399
57.2833 1.5400
57.3000 1.5400
57.3167 1.5401
57.3333 1.5401
57.3500 1.5402
57.3667 1.5402
57.3833 1.5403
57.4000 1.5403
57.4167 1.5404
57.4333 1.5404
57.4500 1.5405
57.4667 1.5405
57.4833 1.5406
57.5000 1.5406
57.5167 1.5407
57.5333 1.5407
57.5500 1.5408
57.5667 1.5408
57.5833 1.5409
57.6000 1.5409
57.6167 1.5410
57.6333 1.5410
57.6500 1.5411
57.6667 1.5411
57.6833 1.5412
57.7000 1.5412
57.7167 1.5413
57.7333 1.5413
57.7500 1.5414
57.7667 1.5414
57.7833 1.5415
57.8000 1.5415
57.8167 1.5416
57.8333 1.5416
57.8500 1.5417
57.8667 1.5417
57.8833 1.5418
57.9000 1.5418
57.9167 1.5419
57.9333 1.5419
57.9500 1.5420
57.9667 1.5420
57.9833 1.5421
58.0000 1.5421
58.0167 1.5422
58.0333 1.5422
58.0500 1.5423
58.0667 1.5423
58.0833 1.5424
58.1000 1.5424
58.1167 1.5425
58.1333 1.5425
58.1500 1.5426
58.1667 1.5426
58.1833 1.5427
58.2000 1.5427
58.2167 1.5428
58.2333 1.5428
58.2500 1.5429
58.2667 1.5429
58.2833 1.5430
58.3000 1.5430
58.3167 1.5431
58.3333 1.5431
58.3500 1.5431
58.3667 1.5432
58.3833 1.5432
58.4000 1.5433
58.4167 1.5433
58.4333 1.5434
58.4500 1.5434
58.4667 1.5435
58.4833 1.5435
58.5000 1.5436
58.5167 1.5436
58.5333 1.5437
58.5500 1.5437
58.5667 1.5438
58.5833 1.5438
58.6000 1.5439
58.6167 1.5439
58.6333 1.5440
58.6500 1.5440
58.6667 1.5441
58.6833 1.5441
58.7000 1.5441
58.7167 1.5442
58.7333 1.5442
58.7500 1.5443
58.7667 1.5443
58.7833 1.5444
58.8000 1.5444
58.8167 1.5445
58.8333 1.5445
58.8500 1.5446
58.8667 1.5446
58.8833 1.5447
58.9000 1.5447
58.9167 1.5448
58.9333 1.5448
58.9500 1.5449
58.9667 1.5449
58.9833 1.5449
59.0000 1.5450
59.0167 1.5450
59.0333 1.5451
59.0500 1.5451
59.0667 1.5452
59.0833 1.5452
59.1000 1.5453
59.1167 1.5453
59.1333 1.5454
59.1500 1.5454
59.1667 1.5455
59.1833 1.5455
59.2000 1.5455
59.2167 1.5456
59.2333 1.5456
59.2500 1.5457
59.2667 1.5457
59.2833 1.5458
59.3000 1.5458
59.3167 1.5459
59.3333 1.5459
59.3500 1.5460
59.3667 1.5460
59.3833 1.5460
59.4000 1.5461
59.4167 1.5461
59.4333 1.5462
59.4500 1.5462
59.4667 1.5463
59.4833 1.5463
59.5000 1.5464
59.5167 1.5464
59.5333 1.5465
59.5500 1.5465
59.5667 1.5465
59.5833 1.5466
59.6000 1.5466
59.6167 1.5467
59.6333 1.5467
59.6500 1.5468
59.6667 1.5468
59.6833 1.5469
59.7000 1.5469
59.7167 1.5470
59.7333 1.5470
59.7500 1.5470
59.7667 1.5471
59.7833 1.5471
59.8000 1.5472
59.8167 1.5472
59.8333 1.5473
59.8500 1.5473
59.8667 1.5474
59.8833 1.5474
59.9000 1.5474
59.9167 1.5475
59.9333 1.5475
59.9500 1.5476
59.9667 1.5476
59.9833 1.5477
60.0000 1.5477
60.0167 1.5478
60.0333 1.5478
60.0500 1.5478
60.0667 1.5479
60.0833 1.5479
60.1000 1.5480
60.1167 1.5480
60.1333 1.5481
60.1500 1.5481
60.1667 1.5481
60.1833 1.5482
60.2000 1.5482
60.2167 1.5483
60.2333 1.5483
60.2500 1.5484
60.2667 1.5484
60.2833 1.5485
60.3000 1.5485
60.3167 1.5485
60.3333 1.5486
60.3500 1.5486
60.3667 1.5487
60.3833 1.5487
60.4000 1.5488
60.4167 1.5488
60.4333 1.5488
60.4500 1.5489
60.4667 1.5489
60.4833 1.5490
60.5000 1.5490
60.5167 1.5491
60.5333 1.5491
60.5500 1.5491
60.5667 1.5492
60.5833 1.5492
60.6000 1.5493
60.6167 1.5493
60.6333 1.5494
60.6500 1.5494
60.6667 1.5494
60.6833 1.5495
60.7000 1.5495
60.7167 1.5496
60.7333 1.5496
60.7500 1.5497
60.7667 1.5497
60.7833 1.5497
60.8000 1.5498
60.8167 1.5498
60.8333 1.5499
60.8500 1.5499
60.8667 1.5500
60.8833 1.5500
60.9000 1.5500
60.9167 1.5501
60.9333 1.5501
60.9500 1.5502
60.9667 1.5502
60.9833 1.5502
61.0000 1.5503
61.0167 1.5503
61.0333 1.5504
61.0500 1.5504
61.0667 1.5505
61.0833 1.5505
61.1000 1.5505
61.1167 1.5506
61.1333 1.5506
61.1500 1.5507
61.1667 1.5507
61.1833 1.5507
61.2000 1.5508
61.2167 1.5508
61.2333 1.5509
61.2500 1.5509
61.2667 1.5510
61.2833 1.5510
61.3000 1.5510
61.3167 1.5511
61.3333 1.5511
61.3500 1.5512
61.3667 1.5512
61.3833 1.5512
61.4000 1.5513
61.4167 1.5513
61.4333 1.5514
61.4500 1.5514
61.4667 1.5514
61.4833 1.5515
61.5000 1.5515
61.5167 1.5516
61.5333 1.5516
61.5500 1.5516
61.5667 1.5517
61.5833 1.5517
61.6000 1.5518
61.6167 1.5518
61.6333 1.5519
61.6500 1.5519
61.6667 1.5519
61.6833 1.5520
61.7000 1.5520
61.7167 1.5521
61.7333 1.5521
61.7500 1.5521
61.7667 1.5522
61.7833 1.5522
61.8000 1.5523
61.8167 1.5523
61.8333 1.5523
61.8500 1.5524
61.8667 1.5524
61.8833 1.5525
61.9000 1.5525
61.9167 1.5525
61.9333 1.5526
61.9500 1.5526
61.9667 1.5527
61.9833 1.5527
62.0000 1.5527
62.0167 1.5528
62.0333 1.5528
62.0500 1.5529
62.0667 1.5529
62.0833 1.5529
62.1000 1.5530
62.1167 1.5530
62.1333 1.5530
62.1500 1.5531
62.1667 1.5531
62.1833 1.5532
62.2000 1.5532
62.2167 1.5532
62.2333 1.5533
62.2500 1.5533
62.2667 1.5534
62.2833 1.5534
62.3000 1.5534
62.3167 1.5535
62.3333 1.5535
62.3500 1.5536
62.3667 1.5536
62.3833 1.5536
62.4000 1.5537
62.4167 1.5537
62.4333 1.5538
62.4500 1.5538
62.4667 1.5538
62.4833 1.5539
62.5000 1.5539
62.5167 1.5539
62.5333 1.5540
62.5500 1.5540
62.5667 1.5541
62.5833 1.5541
62.6000 1.5541
62.6167 1.5542
62.6333 1.5542
62.6500 1.5543
62.6667 1.5543
62.6833 1.5543
62.7000 1.5544
62.7167 1.5544
62.7333 1.5544
62.7500 1.5545
62.7667 1.5545
62.7833 1.5546
62.8000 1.5546
62.8167 1.5546
62.8333 1.5547
62.8500 1.5547
62.8667 1.5547
62.8833 1.5548
62.9000 1.5548
62.9167 1.5549
62.9333 1.5549
62.9500 1.5549
62.9667 1.5550
62.9833 1.5550
63.0000 1.5550
63.0167 1.5551
63.0333 1.5551
63.0500 1.5552
63.0667 1.5552
63.0833 1.5552
63.1000 1.5553
63.1167 1.5553
63.1333 1.5553
63.1500 1.5554
63.1667 1.5554
63.1833 1.5555
63.2000 1.5555
63.2167 1.5555
63.2333 1.5556
63.2500 1.5556
63.2667 1.5556
63.2833 1.5557
63.3000 1.5557
63.3167 1.5558
63.3333 1.5558
63.3500 1.5558
63.3667 1.5559
63.3833 1.5559
63.4000 1.5559
63.4167 1.5560
63.4333 1.5560
63.4500 1.5560
63.4667 1.5561
63.4833 1.5561
63.5000 1.5562
63.5167 1.5562
63.5333 1.5562
63.5500 1.5563
63.5667 1.5563
63.5833 1.5563
63.6000 1.5564
63.6167 1.5564
63.6333 1.5564
63.6500 1.5565
63.6667 1.5565
63.6833 1.5566
63.7000 1.5566
63.7167 1.5566
63.7333 1.5567
63.7500 1.5567
63.7667 1.5567
63.7833 1.5568
63.8000 1.5568
63.8167 1.5568
63.8333 1.5569
63.8500 1.5569
63.8667 1.5570
63.8833 1.5570
63.9000 1.5570
63.9167 1.5571
63.9333 1.5571
63.9500 1.5571
63.9667 1.5572
63.9833 1.5572
64.0000 1.5572
64.0167 1.5573
64.0333 1.5573
64.0500 1.5573
64.0667 1.5574
64.0833 1.5574
64.1000 1.5575
64.1167 1.5575
64.1333 1.5575
64.1500 1.5576
64.1667 1.5576
64.1833 1.5576
64.2000 1.5577
64.2167 1.5577
64.2333 1.5577
64.2500 1.5578
64.2667 1.5578
64.2833 1.5578
64.3000 1.5579
64.3167 1.5579
64.3333 1.5579
64.3500 1.5580
64.3667 1.5580
64.3833 1.5580
64.4000 1.5581
64.4167 1.5581
64.4333 1.5582
64.4500 1.5582
64.4667 1.5582
64.4833 1.5583
64.5000 1.5583
64.5167 1.5583
64.5333 1.5584
64.5500 1.5584
64.5667 1.5584
64.5833 1.5585
64.6000 1.5585
64.6167 1.5585
64.6333 1.5586
64.6500 1.5586
64.6667 1.5586
64.6833 1.5587
64.7000 1.5587
64.7167 1.5587
64.7333 1.5588
64.7500 1.5588
64.7667 1.5588
64.7833 1.5589
64.8000 1.5589
64.8167 1.5589
64.8333 1.5590
64.8500 1.5590
64.8667 1.5590
64.8833 1.5591
64.9000 1.5591
64.9167 1.5591
64.9333 1.5592
64.9500 1.5592
64.9667 1.5592
64.9833 1.5593
65.0000 1.5593
65.0167 1.5593
65.0333 1.5594
65.0500 1.5594
65.0667 1.5594
65.0833 1.5595
65.1000 1.5595
65.1167 1.5595
65.1333 1.5596
65.1500 1.5596
65.1667 1.5596
65.1833 1.5597
65.2000 1.5597
65.2167 1.5597
65.2333 1.5598
65.2500 1.5598
65.2667 1.5598
65.2833 1.5599
65.3000 1.5599
65.3167 1.5599
65.3333 1.5600
65.3500 1.5600
65.3667 1.5600
65.3833 1.5601
65.4000 1.5601
65.4167 1.5601
65.4333 1.5602
65.4500 1.5602
65.4667 1.5602
65.4833 1.5603
65.5000 1.5603
65.5167 1.5603
65.5333 1.5604
65.5500 1.5604
65.5667 1.5604
65.5833 1.5605
65.6000 1.5605
65.6167 1.5605
65.6333 1.5606
65.6500 1.5606
65.6667 1.5606
65.6833 1.5607
65.7000 1.5607
65.7167 1.5607
65.7333 1.5608
65.7500 1.5608
65.7667 1.5608
65.7833 1.5609
65.8000 1.5609
65.8167 1.5609
65.8333 1.5609
65.8500 1.5610
65.8667 1.5610
65.8833 1.5610
65.9000 1.5611
65.9167 1.5611
65.9333 1.5611
65.9500 1.5612
65.9667 1.5612
65.9833 1.5612
66.0000 1.5613
66.0167 1.5613
66.0333 1.5613
66.0500 1.5614
66.0667 1.5614
66.0833 1.5614
66.1000 1.5615
66.1167 1.5615
66.1333 1.5615
66.1500 1.5616
66.1667 1.5616
66.1833 1.5616
66.2000 1.5616
66.2167 1.5617
66.2333 1.5617
66.2500 1.5617
66.2667 1.5618
66.2833 1.5618
66.3000 1.5618
66.3167 1.5619
66.3333 1.5619
66.3500 1.5619
66.3667 1.5620
66.3833 1.5620
66.4000 1.5620
66.4167 1.5621
66.4333 1.5621
66.4500 1.5621
66.4667 1.5621
66.4833 1.5622
66.5000 1.5622
66.5167 1.5622
66.5333 1.5623
66.5500 1.5623
66.5667 1.5623
66.5833 1.5624
66.6000 1.5624
66.6167 1.5624
66.6333 1.5624
66.6500 1.5625
66.6667 1.5625
66.6833 1.5625
66.7000 1.5626
66.7167 1.5626
66.7333 1.5626
66.7500 1.5627
66.7667 1.5627
66.7833 1.5627
66.8000 1.5628
66.8167 1.5628
66.8333 1.5628
66.8500 1.5628
66.8667 1.5629
66.8833 1.5629
66.9000 1.5629
66.9167 1.5630
66.9333 1.5630
66.9500 1.5630
66.9667 1.5631
66.9833 1.5631
67.0000 1.5631
67.0167 1.5631
67.0333 1.5632
67.0500 1.5632
67.0667 1.5632
67.0833 1.5633
67.1000 1.5633
67.1167 1.5633
67.1333 1.5634
67.1500 1.5634
67.1667 1.5634
67.1833 1.5634
67.2000 1.5635
67.2167 1.5635
67.2333 1.5635
67.2500 1.5636
67.2667 1.5636
67.2833 1.5636
67.3000 1.5636
67.3167 1.5637
67.3333 1.5637
67.3500 1.5637
67.3667 1.5638
67.3833 1.5638
67.4000 1.5638
67.4167 1.5639
67.4333 1.5639
67.4500 1.5639
67.4667 1.5639
67.4833 1.5640
67.5000 1.5640
67.5167 1.5640
67.5333 1.5641
67.5500 1.5641
67.5667 1.5641
67.5833 1.5641
67.6000 1.5642
67.6167 1.5642
67.6333 1.5642
67.6500 1.5643
67.6667 1.5643
67.6833 1.5643
67.7000 1.5643
67.7167 1.5644
67.7333 1.5644
67.7500 1.5644
67.7667 1.5645
67.7833 1.5645
67.8000 1.5645
67.8167 1.5645
67.8333 1.5646
67.8500 1.5646
67.8667 1.5646
67.8833 1.5647
67.9000 1.5647
67.9167 1.5647
67.9333 1.5647
67.9500 1.5648
67.9667 1.5648
67.9833 1.5648
68.0000 1.5649
68.0167 1.5649
68.0333 1.5649
68.0500 1.5649
68.0667 1.5650
68.0833 1.5650
68.1000 1.5650
68.1167 1.5651
68.1333 1.5651
68.1500 1.5651
68.1667 1.5651
68.1833 1.5652
68.2000 1.5652
68.2167 1.5652
68.2333 1.5652
68.2500 1.5653
68.2667 1.5653
68.2833 1.5653
68.3000 1.5654
68.3167 1.5654
68.3333 1.5654
68.3500 1.5654
68.3667 1.5655
68.3833 1.5655
68.4000 1.5655
68.4167 1.5655
68.4333 1.5656
68.4500 1.5656
68.4667 1.5656
68.4833 1.5657
68.5000 1.5657
68.5167 1.5657
68.5333 1.5657
68.5500 1.5658
68.5667 1.5658
68.5833 1.5658
68.6000 1.5658
68.6167 1.5659
68.6333 1.5659
68.6500 1.5659
68.6667 1.5660
68.6833 1.5660
68.7000 1.5660
68.7167 1.5660
68.7333 1.5661
68.7500 1.5661
68.7667 1.5661
68.7833 1.5661
68.8000 1.5662
68.8167 1.5662
68.8333 1.5662
68.8500 1.5663
68.8667 1.5663
68.8833 1.5663
68.9000 1.5663
68.9167 1.5664
68.9333 1.5664
68.9500 1.5664
68.9667 1.5664
68.9833 1.5665
69.0000 1.5665
69.0167 1.5665
69.0333 1.5665
69.0500 1.5666
69.0667 1.5666
69.0833 1.5666
69.1000 1.5667
69.1167 1.5667
69.1333 1.5667
69.1500 1.5667
69.1667 1.5668
69.1833 1.5668
69.2000 1.5668
69.2167 1.5668
69.2333 1.5669
69.2500 1.5669
69.2667 1.5669
69.2833 1.5669
69.3000 1.5670
69.3167 1.5670
69.3333 1.5670
69.3500 1.5670
69.3667 1.5671
69.3833 1.5671
69.4000 1.5671
69.4167 1.5671
69.4333 1.5672
69.4500 1.5672
69.4667 1.5672
69.4833 1.5672
69.5000 1.5673
69.5167 1.5673
69.5333 1.5673
69.5500 1.5674
69.5667 1.5674
69.5833 1.5674
69.6000 1.5674
69.6167 1.5675
69.6333 1.5675
69.6500 1.5675
69.6667 1.5675
69.6833 1.5676
69.7000 1.5676
69.7167 1.5676
69.7333 1.5676
69.7500 1.5677
69.7667 1.5677
69.7833 1.5677
69.8000 1.5677
69.8167 1.5678
69.8333 1.5678
69.8500 1.5678
69.8667 1.5678
69.8833 1.5679
69.9000 1.5679
69.9167 1.5679
69.9333 1.5679
69.9500 1.5680
69.9667 1.5680
69.9833 1.5680
70.0000 1.5680
70.0167 1.5681
70.0333 1.5681
70.0500 1.5681
70.0667 1.5681
70.0833 1.5682
70.1000 1.5682
70.1167 1.5682
70.1333 1.5682
70.1500 1.5683
70.1667 1.5683
70.1833 1.5683
70.2000 1.5683
70.2167 1.5684
70.2333 1.5684
70.2500 1.5684
70.2667 1.5684
70.2833 1.5684
70.3000 1.5685
70.3167 1.5685
70.3333 1.5685
70.3500 1.5685
70.3667 1.5686
70.3833 1.5686
70.4000 1.5686
70.4167 1.5686
70.4333 1.5687
70.4500 1.5687
70.4667 1.5687
70.4833 1.5687
70.5000 1.5688
70.5167 1.5688
70.5333 1.5688
70.5500 1.5688
70.5667 1.5689
70.5833 1.5689
70.6000 1.5689
70.6167 1.5689
70.6333 1.5690
70.6500 1.5690
70.6667 1.5690
70.6833 1.5690
70.7000 1.5691
70.7167 1.5691
70.7333 1.5691
70.7500 1.5691
70.7667 1.5691
70.7833 1.5692
70.8000 1.5692
70.8167 1.5692
70.8333 1.5692
70.8500 1.5693
70.8667 1.5693
70.8833 1.5693
70.9000 1.5693
70.9167 1.5694
70.9333 1.5694
70.9500 1.5694
70.9667 1.5694
70.9833 1.5695
71.0000 1.5695
71.0167 1.5695
71.0333 1.5695
71.0500 1.5695
71.0667 1.5696
71.0833 1.5696
71.1000 1.5696
71.1167 1.5696
71.1333 1.5697
71.1500 1.5697
71.1667 1.5697
71.1833 1.5697
71.2000 1.5698
71.2167 1.5698
71.2333 1.5698
71.2500 1.5698
71.2667 1.5698
71.2833 1.5699
71.3000 1.5699
71.3167 1.5699
71.3333 1.5699
71.3500 1.5700
71.3667 1.5700
71.3833 1.5700
71.4000 1.5700
71.4167 1.5701
71.4333 1.5701
71.4500 1.5701
71.4667 1.5701
71.4833 1.5701
71.5000 1.5702
71.5167 1.5702
71.5333 1.5702
71.5500 1.5702
71.5667 1.5703
71.5833 1.5703
71.6000 1.5703
71.6167 1.5703
71.6333 1.5703
71.6500 1.5704
71.6667 1.5704
71.6833 1.5704
71.7000 1.5704
71.7167 1.5705
71.7333 1.5705
71.7500 1.5705
71.7667 1.5705
71.7833 1.5705
71.8000 1.5706
71.8167 1.5706
71.8333 1.5706
71.8500 1.5706
71.8667 1.5707
71.8833 1.5707
71.9000 1.5707
71.9167 1.5707
71.9333 1.5707
71.9500 1.5708
71.9667 1.5708
71.9833 1.5708
72.0000 1.5708
72.0167 1.5709
72.0333 1.5709
72.0500 1.5709
72.0667 1.5709
72.0833 1.5709
72.1000 1.5710
72.1167 1.5710
72.1333 1.5710
72.1500 1.5710
72.1667 1.5710
72.1833 1.5711
72.2000 1.5711
72.2167 1.5711
72.2333 1.5711
72.2500 1.5712
72.2667 1.5712
72.2833 1.5712
72.3000 1.5712
72.3167 1.5712
72.3333 1.5713
72.3500 1.5713
72.3667 1.5713
72.3833 1.5713
72.4000 1.5713
72.4167 1.5714
72.4333 1.5714
72.4500 1.5714
72.4667 1.5714
72.4833 1.5715
72.5000 1.5715
72.5167 1.5715
72.5333 1.5715
72.5500 1.5715
72.5667 1.5716
72.5833 1.5716
72.6000 1.5716
72.6167 1.5716
72.6333 1.5716
72.6500 1.5717
72.6667 1.5717
72.6833 1.5717
72.7000 1.5717
72.7167 1.5717
72.7333 1.5718
72.7500 1.5718
72.7667 1.5718
72.7833 1.5718
72.8000 1.5718
72.8167 1.5719
72.8333 1.5719
72.8500 1.5719
72.8667 1.5719
72.8833 1.5720
72.9000 1.5720
72.9167 1.5720
72.9333 1.5720
72.9500 1.5720
72.9667 1.5721
72.9833 1.5721
73.0000 1.5721
73.0167 1.5721
73.0333 1.5721
73.0500 1.5722
73.0667 1.5722
73.0833 1.5722
73.1000 1.5722
73.1167 1.5722
73.1333 1.5723
73.1500 1.5723
73.1667 1.5723
73.1833 1.5723
73.2000 1.5723
73.2167 1.5724
73.2333 1.5724
73.2500 1.5724
73.2667 1.5724
73.2833 1.5724
73.3000 1.5725
73.3167 1.5725
73.3333 1.5725
73.3500 1.5725
73.3667 1.5725
73.3833 1.5726
73.4000 1.5726
73.4167 1.5726
73.4333 1.5726
73.4500 1.5726
73.4667 1.5727
73.4833 1.5727
73.5000 1.5727
73.5167 1.5727
73.5333 1.5727
73.5500 1.5728
73.5667 1.5728
73.5833 1.5728
73.6000 1.5728
73.6167 1.5728
73.6333 1.5729
73.6500 1.5729
73.6667 1.5729
73.6833 1.5729
73.7000 1.5729
73.7167 1.5729
73.7333 1.5730
73.7500 1.5730
73.7667 1.5730
73.7833 1.5730
73.8000 1.5730
73.8167 1.5731
73.8333 1.5731
73.8500 1.5731
73.8667 1.5731
73.8833 1.5731
73.9000 1.5732
73.9167 1.5732
73.9333 1.5732
73.9500 1.5732
73.9667 1.5732
73.9833 1.5733
74.0000 1.5733
74.0167 1.5733
74.0333 1.5733
74.0500 1.5733
74.0667 1.5734
74.0833 1.5734
74.1000 1.5734
74.1167 1.5734
74.1333 1.5734
74.1500 1.5734
74.1667 1.5735
74.1833 1.5735
74.2000 1.5735
74.2167 1.5735
74.2333 1.5735
74.2500 1.5736
74.2667 1.5736
74.2833 1.5736
74.3000 1.5736
74.3167 1.5736
74.3333 1.5737
74.3500 1.5737
74.3667 1.5737
74.3833 1.5737
74.4000 1.5737
74.4167 1.5737
74.4333 1.5738
74.4500 1.5738
74.4667 1.5738
74.4833 1.5738
74.5000 1.5738
74.5167 1.5739
74.5333 1.5739
74.5500 1.5739
74.5667 1.5739
74.5833 1.5739
74.6000 1.5739
74.6167 1.5740
74.6333 1.5740
74.6500 1.5740
74.6667 1.5740
74.6833 1.5740
74.7000 1.5741
74.7167 1.5741
74.7333 1.5741
74.7500 1.5741
74.7667 1.5741
74.7833 1.5741
74.8000 1.5742
74.8167 1.5742
74.8333 1.5742
74.8500 1.5742
74.8667 1.5742
74.8833 1.5743
74.9000 1.5743
74.9167 1.5743
74.9333 1.5743
74.9500 1.5743
74.9667 1.5743
74.9833 1.5744
75.0000 1.5744
75.0167 1.5744
75.0333 1.5744
75.0500 1.5744
75.0667 1.5744
75.0833 1.5745
75.1000 1.5745
75.1167 1.5745
75.1333 1.5745
75.1500 1.5745
75.1667 1.5746
75.1833 1.5746
75.2000 1.5746
75.2167 1.5746
75.2333 1.5746
75.2500 1.5746
75.2667 1.5747
75.2833 1.5747
75.3000 1.5747
75.3167 1.5747
75.3333 1.5747
75.3500 1.5747
75.3667 1.5748
75.3833 1.5748
75.4000 1.5748
75.4167 1.5748
75.4333 1.5748
75.4500 1.5748
75.4667 1.5749
75.4833 1.5749
75.5000 1.5749
75.5167 1.5749
75.5333 1.5749
75.5500 1.5749
75.5667 1.5750
75.5833 1.5750
75.6000 1.5750
75.6167 1.5750
75.6333 1.5750
75.6500 1.5750
75.6667 1.5751
75.6833 1.5751
75.7000 1.5751
75.7167 1.5751
75.7333 1.5751
75.7500 1.5751
75.7667 1.5752
75.7833 1.5752
75.8000 1.5752
75.8167 1.5752
75.8333 1.5752
75.8500 1.5752
75.8667 1.5753
75.8833 1.5753
75.9000 1.5753
75.9167 1.5753
75.9333 1.5753
75.9500 1.5753
75.9667 1.5754
75.9833 1.5754
76.0000 1.5754
76.0167 1.5754
76.0333 1.5754
76.0500 1.5754
76.0667 1.5755
76.0833 1.5755
76.1000 1.5755
76.1167 1.5755
76.1333 1.5755
76.1500 1.5755
76.1667 1.5756
76.1833 1.5756
76.2000 1.5756
76.2167 1.5756
76.2333 1.5756
76.2500 1.5756
76.2667 1.5757
76.2833 1.5757
76.3000 1.5757
76.3167 1.5757
76.3333 1.5757
76.3500 1.5757
76.3667 1.5758
76.3833 1.5758
76.4000 1.5758
76.4167 1.5758
76.4333 1.5758
76.4500 1.5758
76.4667 1.5758
76.4833 1.5759
76.5000 1.5759
76.5167 1.5759
76.5333 1.5759
76.5500 1.5759
76.5667 1.5759
76.5833 1.5760
76.6000 1.5760
76.6167 1.5760
76.6333 1.5760
76.6500 1.5760
76.6667 1.5760
76.6833 1.5761
76.7000 1.5761
76.7167 1.5761
76.7333 1.5761
76.7500 1.5761
76.7667 1.5761
76.7833 1.5761
76.8000 1.5762
76.8167 1.5762
76.8333 1.5762
76.8500 1.5762
76.8667 1.5762
76.8833 1.5762
76.9000 1.5763
76.9167 1.5763
76.9333 1.5763
76.9500 1.5763
76.9667 1.5763
76.9833 1.5763
77.0000 1.5763
77.0167 1.5764
77.0333 1.5764
77.0500 1.5764
77.0667 1.5764
77.0833 1.5764
77.1000 1.5764
77.1167 1.5764
77.1333 1.5765
77.1500 1.5765
77.1667 1.5765
77.1833 1.5765
77.2000 1.5765
77.2167 1.5765
77.2333 1.5766
77.2500 1.5766
77.2667 1.5766
77.2833 1.5766
77.3000 1.5766
77.3167 1.5766
77.3333 1.5766
77.3500 1.5767
77.3667 1.5767
77.3833 1.5767
77.4000 1.5767
77.4167 1.5767
77.4333 1.5767
77.4500 1.5767
77.4667 1.5768
77.4833 1.5768
77.5000 1.5768
77.5167 1.5768
77.5333 1.5768
77.5500 1.5768
77.5667 1.5768
77.5833 1.5769
77.6000 1.5769
77.6167 1.5769
77.6333 1.5769
77.6500 1.5769
77.6667 1.5769
77.6833 1.5769
77.7000 1.5770
77.7167 1.5770
77.7333 1.5770
77.7500 1.5770
77.7667 1.5770
77.7833 1.5770
77.8000 1.5770
77.8167 1.5771
77.8333 1.5771
77.8500 1.5771
77.8667 1.5771
77.8833 1.5771
77.9000 1.5771
77.9167 1.5771
77.9333 1.5772
77.9500 1.5772
77.9667 1.5772
77.9833 1.5772
78.0000 1.5772
78.0167 1.5772
78.0333 1.5772
78.0500 1.5773
78.0667 1.5773
78.0833 1.5773
78.1000 1.5773
78.1167 1.5773
78.1333 1.5773
78.1500 1.5773
78.1667 1.5774
78.1833 1.5774
78.2000 1.5774
78.2167 1.5774
78.2333 1.5774
78.2500 1.5774
78.2667 1.5774
78.2833 1.5775
78.3000 1.5775
78.3167 1.5775
78.3333 1.5775
78.3500 1.5775
78.3667 1.5775
78.3833 1.5775
78.4000 1.5775
78.4167 1.5776
78.4333 1.5776
78.4500 1.5776
78.4667 1.5776
78.4833 1.5776
78.5000 1.5776
78.5167 1.5776
78.5333 1.5777
78.5500 1.5777
78.5667 1.5777
78.5833 1.5777
78.6000 1.5777
78.6167 1.5777
78.6333 1.5777
78.6500 1.5777
78.6667 1.5778
78.6833 1.5778
78.7000 1.5778
78.7167 1.5778
78.7333 1.5778
78.7500 1.5778
78.7667 1.5778
78.7833 1.5779
78.8000 1.5779
78.8167 1.5779
78.8333 1.5779
78.8500 1.5779
78.8667 1.5779
78.8833 1.5779
78.9000 1.5779
78.9167 1.5780
78.9333 1.5780
78.9500 1.5780
78.9667 1.5780
78.9833 1.5780
79.0000 1.5780
79.0167 1.5780
79.0333 1.5780
79.0500 1.5781
79.0667 1.5781
79.0833 1.5781
79.1000 1.5781
79.1167 1.5781
79.1333 1.5781
79.1500 1.5781
79.1667 1.5781
79.1833 1.5782
79.2000 1.5782
79.2167 1.5782
79.2333 1.5782
79.2500 1.5782
79.2667 1.5782
79.2833 1.5782
79.3000 1.5783
79.3167 1.5783
79.3333 1.5783
79.3500 1.5783
79.3667 1.5783
79.3833 1.5783
79.4000 1.5783
79.4167 1.5783
79.4333 1.5783
79.4500 1.5784
79.4667 1.5784
79.4833 1.5784
79.5000 1.5784
79.5167 1.5784
79.5333 1.5784
79.5500 1.5784
79.5667 1.5784
79.5833 1.5785
79.6000 1.5785
79.6167 1.5785
79.6333 1.5785
79.6500 1.5785
79.6667 1.5785
79.6833 1.5785
79.7000 1.5785
79.7167 1.5786
79.7333 1.5786
79.7500 1.5786
79.7667 1.5786
79.7833 1.5786
79.8000 1.5786
79.8167 1.5786
79.8333 1.5786
79.8500 1.5787
79.8667 1.5787
79.8833 1.5787
79.9000 1.5787
79.9167 1.5787
79.9333 1.5787
79.9500 1.5787
79.9667 1.5787
79.9833 1.5787
80.0000 1.5788
80.0167 1.5788
80.0333 1.5788
80.0500 1.5788
80.0667 1.5788
80.0833 1.5788
80.1000 1.5788
80.1167 1.5788
80.1333 1.5789
80.1500 1.5789
80.1667 1.5789
80.1833 1.5789
80.2000 1.5789
80.2167 1.5789
80.2333 1.5789
80.2500 1.5789
80.2667 1.5789
80.2833 1.5790
80.3000 1.5790
80.3167 1.5790
80.3333 1.5790
80.3500 1.5790
80.3667 1.5790
80.3833 1.5790
80.4000 1.5790
80.4167 1.5790
80.4333 1.5791
80.4500 1.5791
80.4667 1.5791
80.4833 1.5791
80.5000 1.5791
80.5167 1.5791
80.5333 1.5791
80.5500 1.5791
80.5667 1.5791
80.5833 1.5792
80.6000 1.5792
80.6167 1.5792
80.6333 1.5792
80.6500 1.5792
80.6667 1.5792
80.6833 1.5792
80.7000 1.5792
80.7167 1.5792
80.7333 1.5793
80.7500 1.5793
80.7667 1.5793
80.7833 1.5793
80.8000 1.5793
80.8167 1.5793
80.8333 1.5793
80.8500 1.5793
80.8667 1.5793
80.8833 1.5794
80.9000 1.5794
80.9167 1.5794
80.9333 1.5794
80.9500 1.5794
80.9667 1.5794
80.9833 1.5794
81.0000 1.5794
81.0167 1.5794
81.0333 1.5795
81.0500 1.5795
81.0667 1.5795
81.0833 1.5795
81.1000 1.5795
81.1167 1.5795
81.1333 1.5795
81.1500 1.5795
81.1667 1.5795
81.1833 1.5795
81.2000 1.5796
81.2167 1.5796
81.2333 1.5796
81.2500 1.5796
81.2667 1.5796
81.2833 1.5796
81.3000 1.5796
81.3167 1.5796
81.3333 1.5796
81.3500 1.5797
81.3667 1.5797
81.3833 1.5797
81.4000 1.5797
81.4167 1.5797
81.4333 1.5797
81.4500 1.5797
81.4667 1.5797
81.4833 1.5797
81.5000 1.5797
81.5167 1.5798
81.5333 1.5798
81.5500 1.5798
81.5667 1.5798
81.5833 1.5798
81.6000 1.5798
81.6167 1.5798
81.6333 1.5798
81.6500 1.5798
81.6667 1.5798
81.6833 1.5799
81.7000 1.5799
81.7167 1.5799
81.7333 1.5799
81.7500 1.5799
81.7667 1.5799
81.7833 1.5799
81.8000 1.5799
81.8167 1.5799
81.8333 1.5799
81.8500 1.5800
81.8667 1.5800
81.8833 1.5800
81.9000 1.5800
81.9167 1.5800
81.9333 1.5800
81.9500 1.5800
81.9667 1.5800
81.9833 1.5800
82.0000 1.5800
82.0167 1.5801
82.0333 1.5801
82.0500 1.5801
82.0667 1.5801
82.0833 1.5801
82.1000 1.5801
82.1167 1.5801
82.1333 1.5801
82.1500 1.5801
82.1667 1.5801
82.1833 1.5801
82.2000 1.5802
82.2167 1.5802
82.2333 1.5802
82.2500 1.5802
82.2667 1.5802
82.2833 1.5802
82.3000 1.5802
82.3167 1.5802
82.3333 1.5802
82.3500 1.5802
82.3667 1.5803
82.3833 1.5803
82.4000 1.5803
82.4167 1.5803
82.4333 1.5803
82.4500 1.5803
82.4667 1.5803
82.4833 1.5803
82.5000 1.5803
82.5167 1.5803
82.5333 1.5803
82.5500 1.5804
82.5667 1.5804
82.5833 1.5804
82.6000 1.5804
82.6167 1.5804
82.6333 1.5804
82.6500 1.5804
82.6667 1.5804
82.6833 1.5804
82.7000 1.5804
82.7167 1.5804
82.7333 1.5805
82.7500 1.5805
82.7667 1.5805
82.7833 1.5805
82.8000 1.5805
82.8167 1.5805
82.8333 1.5805
82.8500 1.5805
82.8667 1.5805
82.8833 1.5805
82.9000 1.5805
82.9167 1.5806
82.9333 1.5806
82.9500 1.5806
82.9667 1.5806
82.9833 1.5806
83.0000 1.5806
83.0167 1.5806
83.0333 1.5806
83.0500 1.5806
83.0667 1.5806
83.0833 1.5806
83.1000 1.5806
83.1167 1.5807
83.1333 1.5807
83.1500 1.5807
83.1667 1.5807
83.1833 1.5807
83.2000 1.5807
83.2167 1.5807
83.2333 1.5807
83.2500 1.5807
83.2667 1.5807
83.2833 1.5807
83.3000 1.5807
83.3167 1.5808
83.3333 1.5808
83.3500 1.5808
83.3667 1.5808
83.3833 1.5808
83.4000 1.5808
83.4167 1.5808
83.4333 1.5808
83.4500 1.5808
83.4667 1.5808
83.4833 1.5808
83.5000 1.5808
83.5167 1.5809
83.5333 1.5809
83.5500 1.5809
83.5667 1.5809
83.5833 1.5809
83.6000 1.5809
83.6167 1.5809
83.6333 1.5809
83.6500 1.5809
83.6667 1.5809
83.6833 1.5809
83.7000 1.5809
83.7167 1.5810
83.7333 1.5810
83.7500 1.5810
83.7667 1.5810
83.7833 1.5810
83.8000 1.5810
83.8167 1.5810
83.8333 1.5810
83.8500 1.5810
83.8667 1.5810
83.8833 1.5810
83.9000 1.5810
83.9167 1.5811
83.9333 1.5811
83.9500 1.5811
83.9667 1.5811
83.9833 1.5811
84.0000 1.5811
84.0167 1.5811
84.0333 1.5811
84.0500 1.5811
84.0667 1.5811
84.0833 1.5811
84.1000 1.5811
84.1167 1.5811
84.1333 1.5812
84.1500 1.5812
84.1667 1.5812
84.1833 1.5812
84.2000 1.5812
84.2167 1.5812
84.2333 1.5812
84.2500 1.5812
84.2667 1.5812
84.2833 1.5812
84.3000 1.5812
84.3167 1.5812
84.3333 1.5812
84.3500 1.5812
84.3667 1.5813
84.3833 1.5813
84.4000 1.5813
84.4167 1.5813
84.4333 1.5813
84.4500 1.5813
84.4667 1.5813
84.4833 1.5813
84.5000 1.5813
84.5167 1.5813
84.5333 1.5813
84.5500 1.5813
84.5667 1.5813
84.5833 1.5814
84.6000 1.5814
84.6167 1.5814
84.6333 1.5814
84.6500 1.5814
84.6667 1.5814
84.6833 1.5814
84.7000 1.5814
84.7167 1.5814
84.7333 1.5814
84.7500 1.5814
84.7667 1.5814
84.7833 1.5814
84.8000 1.5814
84.8167 1.5815
84.8333 1.5815
84.8500 1.5815
84.8667 1.5815
84.8833 1.5815
84.9000 1.5815
84.9167 1.5815
84.9333 1.5815
84.9500 1.5815
84.9667 1.5815
84.9833 1.5815
85.0000 1.5815
85.0167 1.5815
85.0333 1.5815
85.0500 1.5815
85.0667 1.5816
85.0833 1.5816
85.1000 1.5816
85.1167 1.5816
85.1333 1.5816
85.1500 1.5816
85.1667 1.5816
85.1833 1.5816
85.2000 1.5816
85.2167 1.5816
85.2333 1.5816
85.2500 1.5816
85.2667 1.5816
85.2833 1.5816
85.3000 1.5817
85.3167 1.5817
85.3333 1.5817
85.3500 1.5817
85.3667 1.5817
85.3833 1.5817
85.4000 1.5817
85.4167 1.5817
85.4333 1.5817
85.4500 1.5817
85.4667 1.5817
85.4833 1.5817
85.5000 1.5817
85.5167 1.5817
85.5333 1.5817
85.5500 1.5817
85.5667 1.5818
85.5833 1.5818
85.6000 1.5818
85.6167 1.5818
85.6333 1.5818
85.6500 1.5818
85.6667 1.5818
85.6833 1.5818
85.7000 1.5818
85.7167 1.5818
85.7333 1.5818
85.7500 1.5818
85.7667 1.5818
85.7833 1.5818
85.8000 1.5818
85.8167 1.5818
85.8333 1.5819
85.8500 1.5819
85.8667 1.5819
85.8833 1.5819
85.9000 1.5819
85.9167 1.5819
85.9333 1.5819
85.9500 1.5819
85.9667 1.5819
85.9833 1.5819
86.0000 1.5819
86.0167 1.5819
86.0333 1.5819
86.0500 1.5819
86.0667 1.5819
86.0833 1.5819
86.1000 1.5820
86.1167 1.5820
86.1333 1.5820
86.1500 1.5820
86.1667 1.5820
86.1833 1.5820
86.2000 1.5820
86.2167 1.5820
86.2333 1.5820
86.2500 1.5820
86.2667 1.5820
86.2833 1.5820
86.3000 1.5820
86.3167 1.5820
86.3333 1.5820
86.3500 1.5820
86.3667 1.5820
86.3833 1.5820
86.4000 1.5821
86.4167 1.5821
86.4333 1.5821
86.4500 1.5821
86.4667 1.5821
86.4833 1.5821
86.5000 1.5821
86.5167 1.5821
86.5333 1.5821
86.5500 1.5821
86.5667 1.5821
86.5833 1.5821
86.6000 1.5821
86.6167 1.5821
86.6333 1.5821
86.6500 1.5821
86.6667 1.5821
86.6833 1.5821
86.7000 1.5822
86.7167 1.5822
86.7333 1.5822
86.7500 1.5822
86.7667 1.5822
86.7833 1.5822
86.8000 1.5822
86.8167 1.5822
86.8333 1.5822
86.8500 1.5822
86.8667 1.5822
86.8833 1.5822
86.9000 1.5822
86.9167 1.5822
86.9333 1.5822
86.9500 1.5822
86.9667 1.5822
86.9833 1.5822
87.0000 1.5822
87.0167 1.5823
87.0333 1.5823
87.0500 1.5823
87.0667 1.5823
87.0833 1.5823
87.1000 1.5823
87.1167 1.5823
87.1333 1.5823
87.1500 1.5823
87.1667 1.5823
87.1833 1.5823
87.2000 1.5823
87.2167 1.5823
87.2333 1.5823
87.2500 1.5823
87.2667 1.5823
87.2833 1.5823
87.3000 1.5823
87.3167 1.5823
87.3333 1.5824
87.3500 1.5824
87.3667 1.5824
87.3833 1.5824
87.4000 1.5824
87.4167 1.5824
87.4333 1.5824
87.4500 1.5824
87.4667 1.5824
87.4833 1.5824
87.5000 1.5824
87.5167 1.5824
87.5333 1.5824
87.5500 1.5824
87.5667 1.5824
87.5833 1.5824
87.6000 1.5824
87.6167 1.5824
87.6333 1.5824
87.6500 1.5824
87.6667 1.5824
87.6833 1.5825
87.7000 1.5825
87.7167 1.5825
87.7333 1.5825
87.7500 1.5825
87.7667 1.5825
87.7833 1.5825
87.8000 1.5825
87.8167 1.5825
87.8333 1.5825
87.8500 1.5825
87.8667 1.5825
87.8833 1.5825
87.9000 1.5825
87.9167 1.5825
87.9333 1.5825
87.9500 1.5825
87.9667 1.5825
87.9833 1.5825
88.0000 1.5825
88.0167 1.5825
88.0333 1.5825
88.0500 1.5825
88.0667 1.5826
88.0833 1.5826
88.1000 1.5826
88.1167 1.5826
88.1333 1.5826
88.1500 1.5826
88.1667 1.5826
88.1833 1.5826
88.2000 1.5826
88.2167 1.5826
88.2333 1.5826
88.2500 1.5826
88.2667 1.5826
88.2833 1.5826
88.3000 1.5826
88.3167 1.5826
88.3333 1.5826
88.3500 1.5826
88.3667 1.5826
88.3833 1.5826
88.4000 1.5826
88.4167 1.5826
88.4333 1.5826
88.4500 1.5826
88.4667 1.5827
88.4833 1.5827
88.5000 1.5827
88.5167 1.5827
88.5333 1.5827
88.5500 1.5827
88.5667 1.5827
88.5833 1.5827
88.6000 1.5827
88.6167 1.5827
88.6333 1.5827
88.6500 1.5827
88.6667 1.5827
88.6833 1.5827
88.7000 1.5827
88.7167 1.5827
88.7333 1.5827
88.7500 1.5827
88.7667 1.5827
88.7833 1.5827
88.8000 1.5827
88.8167 1.5827
88.8333 1.5827
88.8500 1.5827
88.8667 1.5827
88.8833 1.5827
88.9000 1.5828
88.9167 1.5828
88.9333 1.5828
88.9500 1.5828
88.9667 1.5828
88.9833 1.5828
89.0000 1.5828
89.0167 1.5828
89.0333 1.5828
89.0500 1.5828
89.0667 1.5828
89.0833 1.5828
89.1000 1.5828
89.1167 1.5828
89.1333 1.5828
89.1500 1.5828
89.1667 1.5828
89.1833 1.5828
89.2000 1.5828
89.2167 1.5828
89.2333 1.5828
89.2500 1.5828
89.2667 1.5828
89.2833 1.5828
89.3000 1.5828
89.3167 1.5828
89.3333 1.5828
89.3500 1.5828
89.3667 1.5829
89.3833 1.5829
89.4000 1.5829
89.4167 1.5829
89.4333 1.5829
89.4500 1.5829
89.4667 1.5829
89.4833 1.5829
89.5000 1.5829
89.5167 1.5829
89.5333 1.5829
89.5500 1.5829
89.5667 1.5829
89.5833 1.5829
89.6000 1.5829
89.6167 1.5829
89.6333 1.5829
89.6500 1.5829
89.6667 1.5829
89.6833 1.5829
89.7000 1.5829
89.7167 1.5829
89.7333 1.5829
89.7500 1.5829
89.7667 1.5829
89.7833 1.5829
89.8000 1.5829
89.8167 1.5829
89.8333 1.5829
89.8500 1.5829
89.8667 1.5829
89.8833 1.5829
89.9000 1.5830
89.9167 1.5830
89.9333 1.5830
89.9500 1.5830
89.9667 1.5830
89.9833 1.5830
90.0000 1.5830
90.0167 1.5830
90.0333 1.5830
90.0500 1.5830
90.0667 1.5830
90.0833 1.5830
90.1000 1.5830
90.1167 1.5830
90.1333 1.5830
90.1500 1.5830
90.1667 1.5830
90.1833 1.5830
90.2000 1.5830
90.2167 1.5830
90.2333 1.5830
90.2500 1.5830
90.2667 1.5830
90.2833 1.5830
90.3000 1.5830
90.3167 1.5830
90.3333 1.5830
90.3500 1.5830
90.3667 1.5830
90.3833 1.5830
90.4000 1.5830
90.4167 1.5830
90.4333 1.5830
90.4500 1.5830
90.4667 1.5830
90.4833 1.5830
90.5000 1.5830
90.5167 1.5831
90.5333 1.5831
90.5500 1.5831
90.5667 1.5831
90.5833 1.5831
90.6000 1.5831
90.6167 1.5831
90.6333 1.5831
90.6500 1.5831
90.6667 1.5831
90.6833 1.5831
90.7000 1.5831
90.7167 1.5831
90.7333 1.5831
90.7500 1.5831
90.7667 1.5831
90.7833 1.5831
90.8000 1.5831
90.8167 1.5831
90.8333 1.5831
90.8500 1.5831
90.8667 1.5831
90.8833 1.5831
90.9000 1.5831
90.9167 1.5831
90.9333 1.5831
90.9500 1.5831
90.9667 1.5831
90.9833 1.5831
91.0000 1.5831
91.0167 1.5831
91.0333 1.5831
91.0500 1.5831
91.0667 1.5831
91.0833 1.5831
91.1000 1.5831
91.1167 1.5831
91.1333 1.5831
91.1500 1.5831
91.1667 1.5831
91.1833 1.5831
91.2000 1.5831
91.2167 1.5831
91.2333 1.5831
91.2500 1.5831
91.2667 1.5831
91.2833 1.5832
91.3000 1.5832
91.3167 1.5832
91.3333 1.5832
91.3500 1.5832
91.3667 1.5832
91.3833 1.5832
91.4000 1.5832
91.4167 1.5832
91.4333 1.5832
91.4500 1.5832
91.4667 1.5832
91.4833 1.5832
91.5000 1.5832
91.5167 1.5832
91.5333 1.5832
91.5500 1.5832
91.5667 1.5832
91.5833 1.5832
91.6000 1.5832
91.6167 1.5832
91.6333 1.5832
91.6500 1.5832
91.6667 1.5832
91.6833 1.5832
91.7000 1.5832
91.7167 1.5832
91.7333 1.5832
91.7500 1.5832
91.7667 1.5832
91.7833 1.5832
91.8000 1.5832
91.8167 1.5832
91.8333 1.5832
91.8500 1.5832
91.8667 1.5832
91.8833 1.5832
91.9000 1.5832
91.9167 1.5832
91.9333 1.5832
91.9500 1.5832
91.9667 1.5832
91.9833 1.5832
92.0000 1.5832
92.0167 1.5832
92.0333 1.5832
92.0500 1.5832
92.0667 1.5832
92.0833 1.5832
92.1000 1.5832
92.1167 1.5832
92.1333 1.5832
92.1500 1.5832
92.1667 1.5832
92.1833 1.5832
92.2000 1.5832
92.2167 1.5832
92.2333 1.5832
92.2500 1.5832
92.2667 1.5832
92.2833 1.5832
92.3000 1.5832
92.3167 1.5833
92.3333 1.5833
92.3500 1.5833
92.3667 1.5833
92.3833 1.5833
92.4000 1.5833
92.4167 1.5833
92.4333 1.5833
92.4500 1.5833
92.4667 1.5833
92.4833 1.5833
92.5000 1.5833
92.5167 1.5833
92.5333 1.5833
92.5500 1.5833
92.5667 1.5833
92.5833 1.5833
92.6000 1.5833
92.6167 1.5833
92.6333 1.5833
92.6500 1.5833
92.6667 1.5833
92.6833 1.5833
92.7000 1.5833
92.7167 1.5833
92.7333 1.5833
92.7500 1.5833
92.7667 1.5833
92.7833 1.5833
92.8000 1.5833
92.8167 1.5833
92.8333 1.5833
92.8500 1.5833
92.8667 1.5833
92.8833 1.5833
92.9000 1.5833
92.9167 1.5833
92.9333 1.5833
92.9500 1.5833
92.9667 1.5833
92.9833 1.5833
93.0000 1.5833
93.0167 1.5833
93.0333 1.5833
93.0500 1.5833
93.0667 1.5833
93.0833 1.5833
93.1000 1.5833
93.1167 1.5833
93.1333 1.5833
93.1500 1.5833
93.1667 1.5833
93.1833 1.5833
93.2000 1.5833
93.2167 1.5833
93.2333 1.5833
93.2500 1.5833
93.2667 1.5833
93.2833 1.5833
93.3000 1.5833
93.3167 1.5833
93.3333 1.5833
93.3500 1.5833
93.3667 1.5833
93.3833 1.5833
93.4000 1.5833
93.4167 1.5833
93.4333 1.5833
93.4500 1.5833
93.4667 1.5833
93.4833 1.5833
93.5000 1.5833
93.5167 1.5833
93.5333 1.5833
93.5500 1.5833
93.5667 1.5833
93.5833 1.5833
93.6000 1.5833
93.6167 1.5833
93.6333 1.5833
93.6500 1.5833
93.6667 1.5833
93.6833 1.5833
93.7000 1.5833
93.7167 1.5833
93.7333 1.5833
93.7500 1.5833
93.7667 1.5833
93.7833 1.5833
93.8000 1.5833
93.8167 1.5833
93.8333 1.5833
93.8500 1.5833
93.8667 1.5833
93.8833 1.5833
93.9000 1.5833
93.9167 1.5833
93.9333 1.5833
93.9500 1.5833
93.9667 1.5833
93.9833 1.5833
94.0000 1.5833
94.0167 1.5833
94.0333 1.5833
94.0500 1.5833
94.0667 1.5833
94.0833 1.5833
94.1000 1.5833
94.1167 1.5833
94.1333 1.5833
94.1500 1.5833
94.1667 1.5833
94.1833 1.5833
94.2000 1.5833
94.2167 1.5833
94.2333 1.5833
94.2500 1.5833
94.2667 1.5833
94.2833 1.5833
94.3000 1.5833
94.3167 1.5833
94.3333 1.5833
94.3500 1.5833
94.3667 1.5833
94.3833 1.5833
94.4000 1.5833
94.4167 1.5833
94.4333 1.5833
94.4500 1.5833
94.4667 1.5833
94.4833 1.5833
94.5000 1.5833
94.5167 1.5833
94.5333 1.5833
94.5500 1.5833
94.5667 1.5833
94.5833 1.5833
94.6000 1.5833
94.6167 1.5833
94.6333 1.5833
94.6500 1.5833
94.6667 1.5833
94.6833 1.5833
94.7000 1.5833
94.7167 1.5833
94.7333 1.5833
94.7500 1.5833
94.7667 1.5833
94.7833 1.5833
94.8000 1.5833
94.8167 1.5833
94.8333 1.5833
94.8500 1.5833
94.8667 1.5833
94.8833 1.5833
94.9000 1.5833
94.9167 1.5833
94.9333 1.5833
94.9500 1.5833
94.9667 1.5833
94.9833 1.5833
95.0000 1.5833
95.0167 1.5833
95.0333 1.5833
95.0500 1.5833
95.0667 1.5833
95.0833 1.5833
95.1000 1.5833
95.1167 1.5833
95.1333 1.5833
95.1500 1.5833
95.1667 1.5833
95.1833 1.5833
95.2000 1.5833
95.2167 1.5833
95.2333 1.5833
95.2500 1.5833
95.2667 1.5833
95.2833 1.5833
95.3000 1.5833
95.3167 1.5833
95.3333 1.5833
95.3500 1.5833
95.3667 1.5833
95.3833 1.5833
95.4000 1.5833
95.4167 1.5833
95.4333 1.5833
95.4500 1.5833
95.4667 1.5833
95.4833 1.5833
95.5000 1.5833
95.5167 1.5833
95.5333 1.5833
95.5500 1.5833
95.5667 1.5833
95.5833 1.5833
95.6000 1.5833
95.6167 1.5833
95.6333 1.5833
95.6500 1.5833
95.6667 1.5833
95.6833 1.5833
95.7000 1.5833
95.7167 1.5833
95.7333 1.5833
95.7500 1.5833
95.7667 1.5833
95.7833 1.5833
95.8000 1.5833
95.8167 1.5833
95.8333 1.5833
95.8500 1.5833
95.8667 1.5833
95.8833 1.5833
95.9000 1.5833
95.9167 1.5833
95.9333 1.5833
95.9500 1.5833
95.9667 1.5833
95.9833 1.5833
96.0000 1.5833
96.0167 1.5833
96.0333 1.5833
96.0500 1.5833
96.0667 1.5833
96.0833 1.5833
96.1000 1.5833
96.1167 1.5833
96.1333 1.5833
96.1500 1.5833
96.1667 1.5833
96.1833 1.5833
96.2000 1.5833
96.2167 1.5833
96.2333 1.5833
96.2500 1.5832
96.2667 1.5832
96.2833 1.5832
96.3000 1.5832
96.3167 1.5832
96.3333 1.5832
96.3500 1.5832
96.3667 1.5832
96.3833 1.5832
96.4000 1.5832
96.4167 1.5832
96.4333 1.5832
96.4500 1.5832
96.4667 1.5832
96.4833 1.5832
96.5000 1.5832
96.5167 1.5832
96.5333 1.5832
96.5500 1.5832
96.5667 1.5832
96.5833 1.5832
96.6000 1.5832
96.6167 1.5832
96.6333 1.5832
96.6500 1.5832
96.6667 1.5832
96.6833 1.5832
96.7000 1.5832
96.7167 1.5832
96.7333 1.5832
96.7500 1.5832
96.7667 1.5832
96.7833 1.5832
96.8000 1.5832
96.8167 1.5832
96.8333 1.5832
96.8500 1.5832
96.8667 1.5832
96.8833 1.5832
96.9000 1.5832
96.9167 1.5832
96.9333 1.5832
96.9500 1.5832
96.9667 1.5832
96.9833 1.5832
97.0000 1.5832
97.0167 1.5832
97.0333 1.5832
97.0500 1.5832
97.0667 1.5832
97.0833 1.5832
97.1000 1.5832
97.1167 1.5832
97.1333 1.5832
97.1500 1.5832
97.1667 1.5832
97.1833 1.5832
97.2000 1.5832
97.2167 1.5832
97.2333 1.5832
97.2500 1.5832
97.2667 1.5832
97.2833 1.5832
97.3000 1.5832
97.3167 1.5832
97.3333 1.5832
97.3500 1.5832
97.3667 1.5831
97.3833 1.5831
97.4000 1.5831
97.4167 1.5831
97.4333 1.5831
97.4500 1.5831
97.4667 1.5831
97.4833 1.5831
97.5000 1.5831
97.5167 1.5831
97.5333 1.5831
97.5500 1.5831
97.5667 1.5831
97.5833 1.5831
97.6000 1.5831
97.6167 1.5831
97.6333 1.5831
97.6500 1.5831
97.6667 1.5831
97.6833 1.5831
97.7000 1.5831
97.7167 1.5831
97.7333 1.5831
97.7500 1.5831
97.7667 1.5831
97.7833 1.5831
97.8000 1.5831
97.8167 1.5831
97.8333 1.5831
97.8500 1.5831
97.8667 1.5831
97.8833 1.5831
97.9000 1.5831
97.9167 1.5831
97.9333 1.5831
97.9500 1.5831
97.9667 1.5831
97.9833 1.5831
98.0000 1.5831
98.0167 1.5831
98.0333 1.5831
98.0500 1.5831
98.0667 1.5831
98.0833 1.5831
98.1000 1.5831
98.1167 1.5831
98.1333 1.5831
98.1500 1.5831
98.1667 1.5831
98.1833 1.5831
98.2000 1.5830
98.2167 1.5830
98.2333 1.5830
98.2500 1.5830
98.2667 1.5830
98.2833 1.5830
98.3000 1.5830
98.3167 1.5830
98.3333 1.5830
98.3500 1.5830
98.3667 1.5830
98.3833 1.5830
98.4000 1.5830
98.4167 1.5830
98.4333 1.5830
98.4500 1.5830
98.4667 1.5830
98.4833 1.5830
98.5000 1.5830
98.5167 1.5830
98.5333 1.5830
98.5500 1.5830
98.5667 1.5830
98.5833 1.5830
98.6000 1.5830
98.6167 1.5830
98.6333 1.5830
98.6500 1.5830
98.6667 1.5830
98.6833 1.5830
98.7000 1.5830
98.7167 1.5830
98.7333 1.5830
98.7500 1.5830
98.7667 1.5830
98.7833 1.5830
98.8000 1.5830
98.8167 1.5830
98.8333 1.5830
98.8500 1.5830
98.8667 1.5830
98.8833 1.5829
98.9000 1.5829
98.9167 1.5829
98.9333 1.5829
98.9500 1.5829
98.9667 1.5829
98.9833 1.5829
99.0000 1.5829
99.0167 1.5829
99.0333 1.5829
99.0500 1.5829
99.0667 1.5829
99.0833 1.5829
99.1000 1.5829
99.1167 1.5829
99.1333 1.5829
99.1500 1.5829
99.1667 1.5829
99.1833 1.5829
99.2000 1.5829
99.2167 1.5829
99.2333 1.5829
99.2500 1.5829
99.2667 1.5829
99.2833 1.5829
99.3000 1.5829
99.3167 1.5829
99.3333 1.5829
99.3500 1.5829
99.3667 1.5829
99.3833 1.5829
99.4000 1.5829
99.4167 1.5829
99.4333 1.5829
99.4500 1.5829
99.4667 1.5829
99.4833 1.5828
99.5000 1.5828
99.5167 1.5828
99.5333 1.5828
99.5500 1.5828
99.5667 1.5828
99.5833 1.5828
99.6000 1.5828
99.6167 1.5828
99.6333 1.5828
99.6500 1.5828
99.6667 1.5828
99.6833 1.5828
99.7000 1.5828
99.7167 1.5828
99.7333 1.5828
99.7500 1.5828
99.7667 1.5828
99.7833 1.5828
99.8000 1.5828
99.8167 1.5828
99.8333 1.5828
99.8500 1.5828
99.8667 1.5828
99.8833 1.5828
99.9000 1.5828
99.9167 1.5828
99.9333 1.5828
99.9500 1.5828
99.9667 1.5828
99.9833 1.5828
100.0000 1.5828
100.0167 1.5828
100.0333 1.5827
100.0500 1.5827
100.0667 1.5827
100.0833 1.5827
100.1000 1.5827
100.1167 1.5827
100.1333 1.5827
100.1500 1.5827
100.1667 1.5827
100.1833 1.5827
100.2000 1.5827
100.2167 1.5827
100.2333 1.5827
100.2500 1.5827
100.2667 1.5827
100.2833 1.5827
100.3000 1.5827
100.3167 1.5827
100.3333 1.5827
100.3500 1.5827
100.3667 1.5827
100.3833 1.5827
100.4000 1.5827
100.4167 1.5827
100.4333 1.5827
100.4500 1.5827
100.4667 1.5827
100.4833 1.5827
100.5000 1.5827
100.5167 1.5827
100.5333 1.5826
100.5500 1.5826
100.5667 1.5826
100.5833 1.5826
100.6000 1.5826
100.6167 1.5826
100.6333 1.5826
100.6500 1.5826
100.6667 1.5826
100.6833 1.5826
100.7000 1.5826
100.7167 1.5826
100.7333 1.5826
100.7500 1.5826
100.7667 1.5826
100.7833 1.5826
100.8000 1.5826
100.8167 1.5826
100.8333 1.5826
100.8500 1.5826
100.8667 1.5826
100.8833 1.5826
100.9000 1.5826
100.9167 1.5826
100.9333 1.5826
100.9500 1.5826
100.9667 1.5826
100.9833 1.5826
101.0000 1.5825
101.0167 1.5825
101.0333 1.5825
101.0500 1.5825
101.0667 1.5825
101.0833 1.5825
101.1000 1.5825
101.1167 1.5825
101.1333 1.5825
101.1500 1.5825
101.1667 1.5825
101.1833 1.5825
101.2000 1.5825
101.2167 1.5825
101.2333 1.5825
101.2500 1.5825
101.2667 1.5825
101.2833 1.5825
101.3000 1.5825
101.3167 1.5825
101.3333 1.5825
101.3500 1.5825
101.3667 1.5825
101.3833 1.5825
101.4000 1.5825
101.4167 1.5825
101.4333 1.5825
101.4500 1.5824
101.4667 1.5824
101.4833 1.5824
101.5000 1.5824
101.5167 1.5824
101.5333 1.5824
101.5500 1.5824
101.5667 1.5824
101.5833 1.5824
101.6000 1.5824
101.6167 1.5824
101.6333 1.5824
101.6500 1.5824
101.6667 1.5824
101.6833 1.5824
101.7000 1.5824
101.7167 1.5824
101.7333 1.5824
101.7500 1.5824
101.7667 1.5824
101.7833 1.5824
101.8000 1.5824
101.8167 1.5824
101.8333 1.5824
101.8500 1.5824
101.8667 1.5823
101.8833 1.5823
101.9000 1.5823
101.9167 1.5823
101.9333 1.5823
101.9500 1.5823
101.9667 1.5823
101.9833 1.5823
102.0000 1.5823
102.0167 1.5823
102.0333 1.5823
102.0500 1.5823
102.0667 1.5823
102.0833 1.5823
102.1000 1.5823
102.1167 1.5823
102.1333 1.5823
102.1500 1.5823
102.1667 1.5823
102.1833 1.5823
102.2000 1.5823
102.2167 1.5823
102.2333 1.5823
102.2500 1.5823
102.2667 1.5822
102.2833 1.5822
102.3000 1.5822
102.3167 1.5822
102.3333 1.5822
102.3500 1.5822
102.3667 1.5822
102.3833 1.5822
102.4000 1.5822
102.4167 1.5822
102.4333 1.5822
102.4500 1.5822
102.4667 1.5822
102.4833 1.5822
102.5000 1.5822
102.5167 1.5822
102.5333 1.5822
102.5500 1.5822
102.5667 1.5822
102.5833 1.5822
102.6000 1.5822
102.6167 1.5822
102.6333 1.5822
102.6500 1.5822
102.6667 1.5821
102.6833 1.5821
102.7000 1.5821
102.7167 1.5821
102.7333 1.5821
102.7500 1.5821
102.7667 1.5821
102.7833 1.5821
102.8000 1.5821
102.8167 1.5821
102.8333 1.5821
102.8500 1.5821
102.8667 1.5821
102.8833 1.5821
102.9000 1.5821
102.9167 1.5821
102.9333 1.5821
102.9500 1.5821
102.9667 1.5821
102.9833 1.5821
103.0000 1.5821
103.0167 1.5821
103.0333 1.5820
103.0500 1.5820
103.0667 1.5820
103.0833 1.5820
103.1000 1.5820
103.1167 1.5820
103.1333 1.5820
103.1500 1.5820
103.1667 1.5820
103.1833 1.5820
103.2000 1.5820
103.2167 1.5820
103.2333 1.5820
103.2500 1.5820
103.2667 1.5820
103.2833 1.5820
103.3000 1.5820
103.3167 1.5820
103.3333 1.5820
103.3500 1.5820
103.3667 1.5820
103.3833 1.5819
103.4000 1.5819
103.4167 1.5819
103.4333 1.5819
103.4500 1.5819
103.4667 1.5819
103.4833 1.5819
103.5000 1.5819
103.5167 1.5819
103.5333 1.5819
103.5500 1.5819
103.5667 1.5819
103.5833 1.5819
103.6000 1.5819
103.6167 1.5819
103.6333 1.5819
103.6500 1.5819
103.6667 1.5819
103.6833 1.5819
103.7000 1.5819
103.7167 1.5819
103.7333 1.5818
103.7500 1.5818
103.7667 1.5818
103.7833 1.5818
103.8000 1.5818
103.8167 1.5818
103.8333 1.5818
103.8500 1.5818
103.8667 1.5818
103.8833 1.5818
103.9000 1.5818
103.9167 1.5818
103.9333 1.5818
103.9500 1.5818
103.9667 1.5818
103.9833 1.5818
104.0000 1.5818
104.0167 1.5818
104.0333 1.5818
104.0500 1.5818
104.0667 1.5817
104.0833 1.5817
104.1000 1.5817
104.1167 1.5817
104.1333 1.5817
104.1500 1.5817
104.1667 1.5817
104.1833 1.5817
104.2000 1.5817
104.2167 1.5817
104.2333 1.5817
104.2500 1.5817
104.2667 1.5817
104.2833 1.5817
104.3000 1.5817
104.3167 1.5817
104.3333 1.5817
104.3500 1.5817
104.3667 1.5817
104.3833 1.5817
104.4000 1.5816
104.4167 1.5816
104.4333 1.5816
104.4500 1.5816
104.4667 1.5816
104.4833 1.5816
104.5000 1.5816
104.5167 1.5816
104.5333 1.5816
104.5500 1.5816
104.5667 1.5816
104.5833 1.5816
104.6000 1.5816
104.6167 1.5816
104.6333 1.5816
104.6500 1.5816
104.6667 1.5816
104.6833 1.5816
104.7000 1.5816
104.7167 1.5815
104.7333 1.5815
104.7500 1.5815
104.7667 1.5815
104.7833 1.5815
104.8000 1.5815
104.8167 1.5815
104.8333 1.5815
104.8500 1.5815
104.8667 1.5815
104.8833 1.5815
104.9000 1.5815
104.9167 1.5815
104.9333 1.5815
104.9500 1.5815
104.9667 1.5815
104.9833 1.5815
105.0000 1.5815
105.0167 1.5815
105.0333 1.5814
105.0500 1.5814
105.0667 1.5814
105.0833 1.5814
105.1000 1.5814
105.1167 1.5814
105.1333 1.5814
105.1500 1.5814
105.1667 1.5814
105.1833 1.5814
105.2000 1.5814
105.2167 1.5814
105.2333 1.5814
105.2500 1.5814
105.2667 1.5814
105.2833 1.5814
105.3000 1.5814
105.3167 1.5814
105.3333 1.5813
105.3500 1.5813
105.3667 1.5813
105.3833 1.5813
105.4000 1.5813
105.4167 1.5813
105.4333 1.5813
105.4500 1.5813
105.4667 1.5813
105.4833 1.5813
105.5000 1.5813
105.5167 1.5813
105.5333 1.5813
105.5500 1.5813
105.5667 1.5813
105.5833 1.5813
105.6000 1.5813
105.6167 1.5813
105.6333 1.5812
105.6500 1.5812
105.6667 1.5812
105.6833 1.5812
105.7000 1.5812
105.7167 1.5812
105.7333 1.5812
105.7500 1.5812
105.7667 1.5812
105.7833 1.5812
105.8000 1.5812
105.8167 1.5812
105.8333 1.5812
105.8500 1.5812
105.8667 1.5812
105.8833 1.5812
105.9000 1.5812
105.9167 1.5812
105.9333 1.5811
105.9500 1.5811
105.9667 1.5811
105.9833 1.5811
106.0000 1.5811
106.0167 1.5811
106.0333 1.5811
106.0500 1.5811
106.0667 1.5811
106.0833 1.5811
106.1000 1.5811
106.1167 1.5811
106.1333 1.5811
106.1500 1.5811
106.1667 1.5811
106.1833 1.5811
106.2000 1.5811
106.2167 1.5810
106.2333 1.5810
106.2500 1.5810
106.2667 1.5810
106.2833 1.5810
106.3000 1.5810
106.3167 1.5810
106.3333 1.5810
106.3500 1.5810
106.3667 1.5810
106.3833 1.5810
106.4000 1.5810
106.4167 1.5810
106.4333 1.5810
106.4500 1.5810
106.4667 1.5810
106.4833 1.5810
106.5000 1.5809
106.5167 1.5809
106.5333 1.5809
106.5500 1.5809
106.5667 1.5809
106.5833 1.5809
106.6000 1.5809
106.6167 1.5809
106.6333 1.5809
106.6500 1.5809
106.6667 1.5809
106.6833 1.5809
106.7000 1.5809
106.7167 1.5809
106.7333 1.5809
106.7500 1.5809
106.7667 1.5808
106.7833 1.5808
106.8000 1.5808
106.8167 1.5808
106.8333 1.5808
106.8500 1.5808
106.8667 1.5808
106.8833 1.5808
106.9000 1.5808
106.9167 1.5808
106.9333 1.5808
106.9500 1.5808
106.9667 1.5808
106.9833 1.5808
107.0000 1.5808
107.0167 1.5808
107.0333 1.5807
107.0500 1.5807
107.0667 1.5807
107.0833 1.5807
107.1000 1.5807
107.1167 1.5807
107.1333 1.5807
107.1500 1.5807
107.1667 1.5807
107.1833 1.5807
107.2000 1.5807
107.2167 1.5807
107.2333 1.5807
107.2500 1.5807
107.2667 1.5807
107.2833 1.5807
107.3000 1.5806
107.3167 1.5806
107.3333 1.5806
107.3500 1.5806
107.3667 1.5806
107.3833 1.5806
107.4000 1.5806
107.4167 1.5806
107.4333 1.5806
107.4500 1.5806
107.4667 1.5806
107.4833 1.5806
107.5000 1.5806
107.5167 1.5806
107.5333 1.5806
107.5500 1.5806
107.5667 1.5805
107.5833 1.5805
107.6000 1.5805
107.6167 1.5805
107.6333 1.5805
107.6500 1.5805
107.6667 1.5805
107.6833 1.5805
107.7000 1.5805
107.7167 1.5805
107.7333 1.5805
107.7500 1.5805
107.7667 1.5805
107.7833 1.5805
107.8000 1.5805
107.8167 1.5805
107.8333 1.5804
107.8500 1.5804
107.8667 1.5804
107.8833 1.5804
107.9000 1.5804
107.9167 1.5804
107.9333 1.5804
107.9500 1.5804
107.9667 1.5804
107.9833 1.5804
108.0000 1.5804
108.0167 1.5804
108.0333 1.5804
108.0500 1.5804
108.0667 1.5804
108.0833 1.5803
108.1000 1.5803
108.1167 1.5803
108.1333 1.5803
108.1500 1.5803
108.1667 1.5803
108.1833 1.5803
108.2000 1.5803
108.2167 1.5803
108.2333 1.5803
108.2500 1.5803
108.2667 1.5803
108.2833 1.5803
108.3000 1.5803
108.3167 1.5803
108.3333 1.5802
108.3500 1.5802
108.3667 1.5802
108.3833 1.5802
108.4000 1.5802
108.4167 1.5802
108.4333 1.5802
108.4500 1.5802
108.4667 1.5802
108.4833 1.5802
108.5000 1.5802
108.5167 1.5802
108.5333 1.5802
108.5500 1.5802
108.5667 1.5802
108.5833 1.5801
108.6000 1.5801
108.6167 1.5801
108.6333 1.5801
108.6500 1.5801
108.6667 1.5801
108.6833 1.5801
108.7000 1.5801
108.7167 1.5801
108.7333 1.5801
108.7500 1.5801
108.7667 1.5801
108.7833 1.5801
108.8000 1.5801
108.8167 1.5801
108.8333 1.5800
108.8500 1.5800
108.8667 1.5800
108.8833 1.5800
108.9000 1.5800
108.9167 1.5800
108.9333 1.5800
108.9500 1.5800
108.9667 1.5800
108.9833 1.5800
109.0000 1.5800
109.0167 1.5800
109.0333 1.5800
109.0500 1.5800
109.0667 1.5799
109.0833 1.5799
109.1000 1.5799
109.1167 1.5799
109.1333 1.5799
109.1500 1.5799
109.1667 1.5799
109.1833 1.5799
109.2000 1.5799
109.2167 1.5799
109.2333 1.5799
109.2500 1.5799
109.2667 1.5799
109.2833 1.5799
109.3000 1.5799
109.3167 1.5798
109.3333 1.5798
109.3500 1.5798
109.3667 1.5798
109.3833 1.5798
109.4000 1.5798
109.4167 1.5798
109.4333 1.5798
109.4500 1.5798
109.4667 1.5798
109.4833 1.5798
109.5000 1.5798
109.5167 1.5798
109.5333 1.5798
109.5500 1.5797
109.5667 1.5797
109.5833 1.5797
109.6000 1.5797
109.6167 1.5797
109.6333 1.5797
109.6500 1.5797
109.6667 1.5797
109.6833 1.5797
109.7000 1.5797
109.7167 1.5797
109.7333 1.5797
109.7500 1.5797
109.7667 1.5797
109.7833 1.5796
109.8000 1.5796
109.8167 1.5796
109.8333 1.5796
109.8500 1.5796
109.8667 1.5796
109.8833 1.5796
109.9000 1.5796
109.9167 1.5796
109.9333 1.5796
109.9500 1.5796
109.9667 1.5796
109.9833 1.5796
110.0000 1.5796
110.0167 1.5795
110.0333 1.5795
110.0500 1.5795
110.0667 1.5795
110.0833 1.5795
110.1000 1.5795
110.1167 1.5795
110.1333 1.5795
110.1500 1.5795
110.1667 1.5795
110.1833 1.5795
110.2000 1.5795
110.2167 1.5795
110.2333 1.5795
110.2500 1.5794
110.2667 1.5794
110.2833 1.5794
110.3000 1.5794
110.3167 1.5794
110.3333 1.5794
110.3500 1.5794
110.3667 1.5794
110.3833 1.5794
110.4000 1.5794
110.4167 1.5794
110.4333 1.5794
110.4500 1.5794
110.4667 1.5793
110.4833 1.5793
110.5000 1.5793
110.5167 1.5793
110.5333 1.5793
110.5500 1.5793
110.5667 1.5793
110.5833 1.5793
110.6000 1.5793
110.6167 1.5793
110.6333 1.5793
110.6500 1.5793
110.6667 1.5793
110.6833 1.5793
110.7000 1.5792
110.7167 1.5792
110.7333 1.5792
110.7500 1.5792
110.7667 1.5792
110.7833 1.5792
110.8000 1.5792
110.8167 1.5792
110.8333 1.5792
110.8500 1.5792
110.8667 1.5792
110.8833 1.5792
110.9000 1.5792
110.9167 1.5791
110.9333 1.5791
110.9500 1.5791
110.9667 1.5791
110.9833 1.5791
111.0000 1.5791
111.0167 1.5791
111.0333 1.5791
111.0500 1.5791
111.0667 1.5791
111.0833 1.5791
111.1000 1.5791
111.1167 1.5791
111.1333 1.5790
111.1500 1.5790
111.1667 1.5790
111.1833 1.5790
111.2000 1.5790
111.2167 1.5790
111.2333 1.5790
111.2500 1.5790
111.2667 1.5790
111.2833 1.5790
111.3000 1.5790
111.3167 1.5790
111.3333 1.5790
111.3500 1.5789
111.3667 1.5789
111.3833 1.5789
111.4000 1.5789
111.4167 1.5789
111.4333 1.5789
111.4500 1.5789
111.4667 1.5789
111.4833 1.5789
111.5000 1.5789
111.5167 1.5789
111.5333 1.5789
111.5500 1.5789
111.5667 1.5788
111.5833 1.5788
111.6000 1.5788
111.6167 1.5788
111.6333 1.5788
111.6500 1.5788
111.6667 1.5788
111.6833 1.5788
111.7000 1.5788
111.7167 1.5788
111.7333 1.5788
111.7500 1.5788
111.7667 1.5788
111.7833 1.5787
111.8000 1.5787
111.8167 1.5787
111.8333 1.5787
111.8500 1.5787
111.8667 1.5787
111.8833 1.5787
111.9000 1.5787
111.9167 1.5787
111.9333 1.5787
111.9500 1.5787
111.9667 1.5787
111.9833 1.5787
112.0000 1.5786
112.0167 1.5786
112.0333 1.5786
112.0500 1.5786
112.0667 1.5786
112.0833 1.5786
112.1000 1.5786
112.1167 1.5786
112.1333 1.5786
112.1500 1.5786
112.1667 1.5786
112.1833 1.5786
112.2000 1.5786
112.2167 1.5785
112.2333 1.5785
112.2500 1.5785
112.2667 1.5785
112.2833 1.5785
112.3000 1.5785
112.3167 1.5785
112.3333 1.5785
112.3500 1.5785
112.3667 1.5785
112.3833 1.5785
112.4000 1.5785
112.4167 1.5784
112.4333 1.5784
112.4500 1.5784
112.4667 1.5784
112.4833 1.5784
112.5000 1.5784
112.5167 1.5784
112.5333 1.5784
112.5500 1.5784
112.5667 1.5784
112.5833 1.5784
112.6000 1.5784
112.6167 1.5784
112.6333 1.5783
112.6500 1.5783
112.6667 1.5783
112.6833 1.5783
112.7000 1.5783
112.7167 1.5783
112.7333 1.5783
112.7500 1.5783
112.7667 1.5783
112.7833 1.5783
112.8000 1.5783
112.8167 1.5783
112.8333 1.5782
112.8500 1.5782
112.8667 1.5782
112.8833 1.5782
112.9000 1.5782
112.9167 1.5782
112.9333 1.5782
112.9500 1.5782
112.9667 1.5782
112.9833 1.5782
113.0000 1.5782
113.0167 1.5782
113.0333 1.5781
113.0500 1.5781
113.0667 1.5781
113.0833 1.5781
113.1000 1.5781
113.1167 1.5781
113.1333 1.5781
113.1500 1.5781
113.1667 1.5781
113.1833 1.5781
113.2000 1.5781
113.2167 1.5781
113.2333 1.5781
113.2500 1.5780
113.2667 1.5780
113.2833 1.5780
113.3000 1.5780
113.3167 1.5780
113.3333 1.5780
113.3500 1.5780
113.3667 1.5780
113.3833 1.5780
113.4000 1.5780
113.4167 1.5780
113.4333 1.5780
113.4500 1.5779
113.4667 1.5779
113.4833 1.5779
113.5000 1.5779
113.5167 1.5779
113.5333 1.5779
113.5500 1.5779
113.5667 1.5779
113.5833 1.5779
113.6000 1.5779
113.6167 1.5779
113.6333 1.5779
113.6500 1.5778
113.6667 1.5778
113.6833 1.5778
113.7000 1.5778
113.7167 1.5778
113.7333 1.5778
113.7500 1.5778
113.7667 1.5778
113.7833 1.5778
113.8000 1.5778
113.8167 1.5778
113.8333 1.5778
113.8500 1.5777
113.8667 1.5777
113.8833 1.5777
113.9000 1.5777
113.9167 1.5777
113.9333 1.5777
113.9500 1.5777
113.9667 1.5777
113.9833 1.5777
114.0000 1.5777
114.0167 1.5777
114.0333 1.5777
114.0500 1.5776
114.0667 1.5776
114.0833 1.5776
114.1000 1.5776
114.1167 1.5776
114.1333 1.5776
114.1500 1.5776
114.1667 1.5776
114.1833 1.5776
114.2000 1.5776
114.2167 1.5776
114.2333 1.5775
114.2500 1.5775
114.2667 1.5775
114.2833 1.5775
114.3000 1.5775
114.3167 1.5775
114.3333 1.5775
114.3500 1.5775
114.3667 1.5775
114.3833 1.5775
114.4000 1.5775
114.4167 1.5775
114.4333 1.5774
114.4500 1.5774
114.4667 1.5774
114.4833 1.5774
114.5000 1.5774
114.5167 1.5774
114.5333 1.5774
114.5500 1.5774
114.5667 1.5774
114.5833 1.5774
114.6000 1.5774
114.6167 1.5774
114.6333 1.5773
114.6500 1.5773
114.6667 1.5773
114.6833 1.5773
114.7000 1.5773
114.7167 1.5773
114.7333 1.5773
114.7500 1.5773
114.7667 1.5773
114.7833 1.5773
114.8000 1.5773
114.8167 1.5772
114.8333 1.5772
114.8500 1.5772
114.8667 1.5772
114.8833 1.5772
114.9000 1.5772
114.9167 1.5772
114.9333 1.5772
114.9500 1.5772
114.9667 1.5772
114.9833 1.5772
115.0000 1.5772
115.0167 1.5771
115.0333 1.5771
115.0500 1.5771
115.0667 1.5771
115.0833 1.5771
115.1000 1.5771
115.1167 1.5771
115.1333 1.5771
115.1500 1.5771
115.1667 1.5771
115.1833 1.5771
115.2000 1.5770
115.2167 1.5770
115.2333 1.5770
115.2500 1.5770
115.2667 1.5770
115.2833 1.5770
115.3000 1.5770
115.3167 1.5770
115.3333 1.5770
115.3500 1.5770
115.3667 1.5770
115.3833 1.5769
115.4000 1.5769
115.4167 1.5769
115.4333 1.5769
115.4500 1.5769
115.4667 1.5769
115.4833 1.5769
115.5000 1.5769
115.5167 1.5769
115.5333 1.5769
115.5500 1.5769
115.5667 1.5769
115.5833 1.5768
115.6000 1.5768
115.6167 1.5768
115.6333 1.5768
115.6500 1.5768
115.6667 1.5768
115.6833 1.5768
115.7000 1.5768
115.7167 1.5768
115.7333 1.5768
115.7500 1.5768
115.7667 1.5767
115.7833 1.5767
115.8000 1.5767
115.8167 1.5767
115.8333 1.5767
115.8500 1.5767
115.8667 1.5767
115.8833 1.5767
115.9000 1.5767
115.9167 1.5767
115.9333 1.5767
115.9500 1.5766
115.9667 1.5766
115.9833 1.5766
116.0000 1.5766
116.0167 1.5766
116.0333 1.5766
116.0500 1.5766
116.0667 1.5766
116.0833 1.5766
116.1000 1.5766
116.1167 1.5766
116.1333 1.5765
116.1500 1.5765
116.1667 1.5765
116.1833 1.5765
116.2000 1.5765
116.2167 1.5765
116.2333 1.5765
116.2500 1.5765
116.2667 1.5765
116.2833 1.5765
116.3000 1.5765
116.3167 1.5764
116.3333 1.5764
116.3500 1.5764
116.3667 1.5764
116.3833 1.5764
116.4000 1.5764
116.4167 1.5764
116.4333 1.5764
116.4500 1.5764
116.4667 1.5764
116.4833 1.5764
116.5000 1.5763
116.5167 1.5763
116.5333 1.5763
116.5500 1.5763
116.5667 1.5763
116.5833 1.5763
116.6000 1.5763
116.6167 1.5763
116.6333 1.5763
116.6500 1.5763
116.6667 1.5763
116.6833 1.5762
116.7000 1.5762
116.7167 1.5762
116.7333 1.5762
116.7500 1.5762
116.7667 1.5762
116.7833 1.5762
116.8000 1.5762
116.8167 1.5762
116.8333 1.5762
116.8500 1.5762
116.8667 1.5761
116.8833 1.5761
116.9000 1.5761
116.9167 1.5761
116.9333 1.5761
116.9500 1.5761
116.9667 1.5761
116.9833 1.5761
117.0000 1.5761
117.0167 1.5761
117.0333 1.5761
117.0500 1.5760
117.0667 1.5760
117.0833 1.5760
117.1000 1.5760
117.1167 1.5760
117.1333 1.5760
117.1500 1.5760
117.1667 1.5760
117.1833 1.5760
117.2000 1.5760
117.2167 1.5760
117.2333 1.5759
117.2500 1.5759
117.2667 1.5759
117.2833 1.5759
117.3000 1.5759
117.3167 1.5759
117.3333 1.5759
117.3500 1.5759
117.3667 1.5759
117.3833 1.5759
117.4000 1.5758
117.4167 1.5758
117.4333 1.5758
117.4500 1.5758
117.4667 1.5758
117.4833 1.5758
117.5000 1.5758
117.5167 1.5758
117.5333 1.5758
117.5500 1.5758
117.5667 1.5758
117.5833 1.5757
117.6000 1.5757
117.6167 1.5757
117.6333 1.5757
117.6500 1.5757
117.6667 1.5757
117.6833 1.5757
117.7000 1.5757
117.7167 1.5757
117.7333 1.5757
117.7500 1.5757
117.7667 1.5756
117.7833 1.5756
117.8000 1.5756
117.8167 1.5756
117.8333 1.5756
117.8500 1.5756
117.8667 1.5756
117.8833 1.5756
117.9000 1.5756
117.9167 1.5756
117.9333 1.5755
117.9500 1.5755
117.9667 1.5755
117.9833 1.5755
118.0000 1.5755
118.0167 1.5755
118.0333 1.5755
118.0500 1.5755
118.0667 1.5755
118.0833 1.5755
118.1000 1.5755
118.1167 1.5754
118.1333 1.5754
118.1500 1.5754
118.1667 1.5754
118.1833 1.5754
118.2000 1.5754
118.2167 1.5754
118.2333 1.5754
118.2500 1.5754
118.2667 1.5754
118.2833 1.5753
118.3000 1.5753
118.3167 1.5753
118.3333 1.5753
118.3500 1.5753
118.3667 1.5753
118.3833 1.5753
118.4000 1.5753
118.4167 1.5753
118.4333 1.5753
118.4500 1.5753
118.4667 1.5752
118.4833 1.5752
118.5000 1.5752
118.5167 1.5752
118.5333 1.5752
118.5500 1.5752
118.5667 1.5752
118.5833 1.5752
118.6000 1.5752
118.6167 1.5752
118.6333 1.5751
118.6500 1.5751
118.6667 1.5751
118.6833 1.5751
118.7000 1.5751
118.7167 1.5751
118.7333 1.5751
118.7500 1.5751
118.7667 1.5751
118.7833 1.5751
118.8000 1.5751
118.8167 1.5750
118.8333 1.5750
118.8500 1.5750
118.8667 1.5750
118.8833 1.5750
118.9000 1.5750
118.9167 1.5750
118.9333 1.5750
118.9500 1.5750
118.9667 1.5750
118.9833 1.5749
119.0000 1.5749
119.0167 1.5749
119.0333 1.5749
119.0500 1.5749
119.0667 1.5749
119.0833 1.5749
119.1000 1.5749
119.1167 1.5749
119.1333 1.5749
119.1500 1.5748
119.1667 1.5748
119.1833 1.5748
119.2000 1.5748
119.2167 1.5748
119.2333 1.5748
119.2500 1.5748
119.2667 1.5748
119.2833 1.5748
119.3000 1.5748
119.3167 1.5747
119.3333 1.5747
119.3500 1.5747
119.3667 1.5747
119.3833 1.5747
119.4000 1.5747
119.4167 1.5747
119.4333 1.5747
119.4500 1.5747
119.4667 1.5747
119.4833 1.5747
119.5000 1.5746
119.5167 1.5746
119.5333 1.5746
119.5500 1.5746
119.5667 1.5746
119.5833 1.5746
119.6000 1.5746
119.6167 1.5746
119.6333 1.5746
119.6500 1.5746
119.6667 1.5745
119.6833 1.5745
119.7000 1.5745
119.7167 1.5745
119.7333 1.5745
119.7500 1.5745
119.7667 1.5745
119.7833 1.5745
119.8000 1.5745
119.8167 1.5745
119.8333 1.5744
119.8500 1.5744
119.8667 1.5744
119.8833 1.5744
119.9000 1.5744
119.9167 1.5744
119.9333 1.5744
119.9500 1.5744
119.9667 1.5744
119.9833 1.5744
120.0000 1.5743
